{
  "aor": 0.0006331517509727626,
  "aqi": 0.009538323035019456,
  "bids_meta": {
    "AcquisitionMatrixPE": 68,
    "AcquisitionNumber": 1,
    "AcquisitionTime": "11:56:20.525000",
    "BandwidthPerPixelPhaseEncode": 31.289,
    "BaseResolution": 68,
    "CogAtlasID": "TODO",
    "CoilString": "C:HEA;HEP",
    "ConversionSoftware": "dcm2niix",
    "ConversionSoftwareVersion": "v1.0.20190902",
    "DerivedVendorReportedEchoSpacing": 0.000470002,
    "DeviceSerialNumber": "35450",
    "DwellTime": 3e-06,
    "EchoTime": 0.023,
    "EffectiveEchoSpacing": 0.000470002,
    "FlipAngle": 76,
    "ImageOrientationPatientDICOM": [
      1,
      0,
      0,
      0,
      0.988228,
      -0.152986
    ],
    "ImageType": [
      "ORIGINAL",
      "PRIMARY",
      "M",
      "ND",
      "MOSAIC"
    ],
    "ImagingFrequency": 123.219,
    "InPlanePhaseEncodingDirectionDICOM": "COL",
    "InstitutionAddress": "Univeristy_Ave._197_Newark_North_East_US_07102-1814",
    "InstitutionName": "RUBIC",
    "InstitutionalDepartmentName": "Department",
    "MRAcquisitionType": "2D",
    "MagneticFieldStrength": 3,
    "Manufacturer": "Siemens",
    "ManufacturersModelName": "TrioTim",
    "Modality": "MR",
    "PartialFourier": 1,
    "PatientPosition": "HFS",
    "PercentPhaseFOV": 100,
    "PhaseEncodingDirection": "j-",
    "PhaseEncodingSteps": 68,
    "PhaseResolution": 1,
    "PixelBandwidth": 2451,
    "ProcedureStepDescription": "Krekelberg_David",
    "ProtocolName": "ep2d_bold_CardGameEPI_3",
    "PulseSequenceDetails": "%SiemensSeq%_ep2d_bold",
    "ReceiveCoilName": "HeadMatrix",
    "ReconMatrixPE": 68,
    "RepetitionTime": 2,
    "SAR": 0.19174,
    "ScanOptions": "FS",
    "ScanningSequence": "EP",
    "SequenceName": "_epfid2d1_68",
    "SequenceVariant": "SK",
    "SeriesDescription": "ep2d_bold_CardGameEPI_3",
    "SeriesNumber": 12,
    "ShimSetting": [
      2100,
      -708,
      -7917,
      1414,
      287,
      -411,
      -2150,
      -14
    ],
    "SliceThickness": 2.5,
    "SliceTiming": [
      1.9525,
      1.895,
      1.84,
      1.785,
      1.7275,
      1.6725,
      1.6175,
      1.5625,
      1.505,
      1.45,
      1.395,
      1.3375,
      1.2825,
      1.2275,
      1.17,
      1.115,
      1.06,
      1.0025,
      0.9475,
      0.8925,
      0.8375,
      0.78,
      0.725,
      0.67,
      0.6125,
      0.5575,
      0.5025,
      0.445,
      0.39,
      0.335,
      0.28,
      0.2225,
      0.1675,
      0.1125,
      0.055,
      0
    ],
    "SoftwareVersions": "syngo_MR_B19",
    "SpacingBetweenSlices": 3,
    "StationName": "MRC35450",
    "TaskName": "cardgame",
    "TotalReadoutTime": 0.0314901,
    "TxRefAmp": 432.025,
    "dataset": "<unset>",
    "dcmmeta_affine": [
      [
        -3.0,
        0.0,
        0.0,
        100.6440658569336
      ],
      [
        0.0,
        2.9646852016448975,
        -0.4589575231075287,
        -66.07403564453125
      ],
      [
        0.0,
        0.4589575231075287,
        2.9646852016448975,
        -75.84114837646484
      ],
      [
        0.0,
        0.0,
        0.0,
        1.0
      ]
    ],
    "dcmmeta_reorient_transform": [
      [
        0.0,
        -1.0,
        0.0,
        67.0
      ],
      [
        1.0,
        0.0,
        0.0,
        0.0
      ],
      [
        0.0,
        0.0,
        1.0,
        0.0
      ],
      [
        0.0,
        0.0,
        0.0,
        1.0
      ]
    ],
    "dcmmeta_shape": [
      68,
      68,
      36,
      258
    ],
    "dcmmeta_slice_dim": 2,
    "dcmmeta_version": 0.6,
    "global": {
      "const": {
        "AcquisitionMatrix": [
          68,
          0,
          0,
          68
        ],
        "AngioFlag": "N",
        "BitsAllocated": 16,
        "BitsStored": 12,
        "Columns": 408,
        "EchoNumbers": 1,
        "EchoTime": 23.0,
        "EchoTrainLength": 1,
        "FlipAngle": 76.0,
        "HighBit": 11,
        "ImageOrientationPatient": [
          1.0,
          0.0,
          0.0,
          0.0,
          0.9882283809914,
          -0.1529858392241
        ],
        "ImagePositionPatient": [
          -610.64406776428,
          -636.55633969286,
          32.931784593931
        ],
        "ImageType": [
          "ORIGINAL",
          "PRIMARY",
          "M",
          "ND",
          "MOSAIC"
        ],
        "ImagedNucleus": "1H",
        "ImagingFrequency": 123.218896,
        "InPlanePhaseEncodingDirection": "COL",
        "MRAcquisitionType": "2D",
        "MagneticFieldStrength": 3.0,
        "Manufacturer": "SIEMENS",
        "ManufacturerModelName": "TrioTim",
        "Modality": "MR",
        "NumberOfAverages": 1.0,
        "NumberOfPhaseEncodingSteps": 68,
        "PercentPhaseFieldOfView": 100.0,
        "PercentSampling": 100.0,
        "PerformedProcedureStepStartTime": "103545.531000",
        "PhotometricInterpretation": "MONOCHROME2",
        "PixelBandwidth": 2451.0,
        "PixelRepresentation": 0,
        "PixelSpacing": [
          3.0,
          3.0
        ],
        "ProtocolName": "ep2d_bold_CardGameEPI_3",
        "RepetitionTime": 2000.0,
        "Rows": 408,
        "SAR": 0.19173954689154,
        "SamplesPerPixel": 1,
        "ScanOptions": "FS",
        "ScanningSequence": "EP",
        "SequenceName": "*epfid2d1_68",
        "SequenceVariant": "SK",
        "SeriesDescription": "ep2d_bold_CardGameEPI_3",
        "SeriesNumber": 12,
        "SeriesTime": "115706.656000",
        "SliceLocation": -64.839981668928,
        "SliceThickness": 2.5,
        "SmallestImagePixelValue": 0,
        "SoftwareVersions": "syngo MR B19",
        "SpacingBetweenSlices": 3.0000000229381,
        "SpecificCharacterSet": "ISO_IR 100",
        "StudyID": "1",
        "StudyTime": "103545.484000",
        "TransmitCoilName": "Body",
        "VariableFlipAngleFlag": "N",
        "WindowCenterWidthExplanation": "Algo1",
        "dBdt": 0.0
      },
      "slices": {}
    },
    "modality": "bold",
    "run_id": 3,
    "subject_id": "215",
    "task_id": "cardgame",
    "time": {
      "samples": {
        "AcquisitionNumber": [
          1,
          2,
          3,
          4,
          5,
          6,
          7,
          8,
          9,
          10,
          11,
          12,
          13,
          14,
          15,
          16,
          17,
          18,
          19,
          20,
          21,
          22,
          23,
          24,
          25,
          26,
          27,
          28,
          29,
          30,
          31,
          32,
          33,
          34,
          35,
          36,
          37,
          38,
          39,
          40,
          41,
          42,
          43,
          44,
          45,
          46,
          47,
          48,
          49,
          50,
          51,
          52,
          53,
          54,
          55,
          56,
          57,
          58,
          59,
          60,
          61,
          62,
          63,
          64,
          65,
          66,
          67,
          68,
          69,
          70,
          71,
          72,
          73,
          74,
          75,
          76,
          77,
          78,
          79,
          80,
          81,
          82,
          83,
          84,
          85,
          86,
          87,
          88,
          89,
          90,
          91,
          92,
          93,
          94,
          95,
          96,
          97,
          98,
          99,
          100,
          101,
          102,
          103,
          104,
          105,
          106,
          107,
          108,
          109,
          110,
          111,
          112,
          113,
          114,
          115,
          116,
          117,
          118,
          119,
          120,
          121,
          122,
          123,
          124,
          125,
          126,
          127,
          128,
          129,
          130,
          131,
          132,
          133,
          134,
          135,
          136,
          137,
          138,
          139,
          140,
          141,
          142,
          143,
          144,
          145,
          146,
          147,
          148,
          149,
          150,
          151,
          152,
          153,
          154,
          155,
          156,
          157,
          158,
          159,
          160,
          161,
          162,
          163,
          164,
          165,
          166,
          167,
          168,
          169,
          170,
          171,
          172,
          173,
          174,
          175,
          176,
          177,
          178,
          179,
          180,
          181,
          182,
          183,
          184,
          185,
          186,
          187,
          188,
          189,
          190,
          191,
          192,
          193,
          194,
          195,
          196,
          197,
          198,
          199,
          200,
          201,
          202,
          203,
          204,
          205,
          206,
          207,
          208,
          209,
          210,
          211,
          212,
          213,
          214,
          215,
          216,
          217,
          218,
          219,
          220,
          221,
          222,
          223,
          224,
          225,
          226,
          227,
          228,
          229,
          230,
          231,
          232,
          233,
          234,
          235,
          236,
          237,
          238,
          239,
          240,
          241,
          242,
          243,
          244,
          245,
          246,
          247,
          248,
          249,
          250,
          251,
          252,
          253,
          254,
          255,
          256,
          257,
          258
        ],
        "AcquisitionTime": [
          "115620.525000",
          "115622.532500",
          "115624.540000",
          "115626.547500",
          "115628.557500",
          "115630.565000",
          "115632.572500",
          "115634.580000",
          "115636.587500",
          "115638.597500",
          "115640.605000",
          "115642.612500",
          "115644.620000",
          "115646.627500",
          "115648.637500",
          "115650.645000",
          "115652.652500",
          "115654.660000",
          "115656.670000",
          "115658.677500",
          "115700.685000",
          "115702.692500",
          "115704.700000",
          "115706.710000",
          "115708.717500",
          "115710.725000",
          "115712.732500",
          "115714.740000",
          "115716.750000",
          "115718.757500",
          "115720.765000",
          "115722.772500",
          "115724.780000",
          "115726.790000",
          "115728.797500",
          "115730.805000",
          "115732.812500",
          "115734.822500",
          "115736.830000",
          "115738.837500",
          "115740.845000",
          "115742.852500",
          "115744.862500",
          "115746.870000",
          "115748.877500",
          "115750.885000",
          "115752.892500",
          "115754.902500",
          "115756.910000",
          "115758.917500",
          "115800.925000",
          "115802.935000",
          "115804.942500",
          "115806.950000",
          "115808.957500",
          "115810.965000",
          "115812.975000",
          "115814.982500",
          "115816.990000",
          "115818.997500",
          "115821.005000",
          "115823.015000",
          "115825.022500",
          "115827.030000",
          "115829.037500",
          "115831.047500",
          "115833.055000",
          "115835.062500",
          "115837.070000",
          "115839.077500",
          "115841.087500",
          "115843.095000",
          "115845.102500",
          "115847.110000",
          "115849.117500",
          "115851.127500",
          "115853.135000",
          "115855.142500",
          "115857.150000",
          "115859.157500",
          "115901.167500",
          "115903.175000",
          "115905.182500",
          "115907.190000",
          "115909.200000",
          "115911.207500",
          "115913.215000",
          "115915.222500",
          "115917.230000",
          "115919.240000",
          "115921.247500",
          "115923.255000",
          "115925.262500",
          "115927.270000",
          "115929.280000",
          "115931.287500",
          "115933.295000",
          "115935.302500",
          "115937.312500",
          "115939.320000",
          "115941.327500",
          "115943.335000",
          "115945.342500",
          "115947.352500",
          "115949.360000",
          "115951.367500",
          "115953.375000",
          "115955.382500",
          "115957.392500",
          "115959.400000",
          "120001.407500",
          "120003.415000",
          "120005.425000",
          "120007.432500",
          "120009.440000",
          "120011.447500",
          "120013.455000",
          "120015.465000",
          "120017.472500",
          "120019.480000",
          "120021.487500",
          "120023.495000",
          "120025.505000",
          "120027.512500",
          "120029.520000",
          "120031.527500",
          "120033.535000",
          "120035.545000",
          "120037.552500",
          "120039.560000",
          "120041.567500",
          "120043.577500",
          "120045.585000",
          "120047.592500",
          "120049.600000",
          "120051.607500",
          "120053.617500",
          "120055.625000",
          "120057.632500",
          "120059.640000",
          "120101.647500",
          "120103.657500",
          "120105.665000",
          "120107.672500",
          "120109.680000",
          "120111.690000",
          "120113.697500",
          "120115.705000",
          "120117.712500",
          "120119.720000",
          "120121.730000",
          "120123.737500",
          "120125.745000",
          "120127.752500",
          "120129.760000",
          "120131.770000",
          "120133.777500",
          "120135.785000",
          "120137.792500",
          "120139.802500",
          "120141.810000",
          "120143.817500",
          "120145.825000",
          "120147.832500",
          "120149.842500",
          "120151.850000",
          "120153.857500",
          "120155.865000",
          "120157.872500",
          "120159.882500",
          "120201.890000",
          "120203.897500",
          "120205.905000",
          "120207.912500",
          "120209.922500",
          "120211.930000",
          "120213.937500",
          "120215.945000",
          "120217.955000",
          "120219.962500",
          "120221.970000",
          "120223.977500",
          "120225.985000",
          "120227.995000",
          "120230.002500",
          "120232.010000",
          "120234.017500",
          "120236.025000",
          "120238.035000",
          "120240.042500",
          "120242.050000",
          "120244.057500",
          "120246.067500",
          "120248.075000",
          "120250.082500",
          "120252.090000",
          "120254.097500",
          "120256.107500",
          "120258.115000",
          "120300.122500",
          "120302.130000",
          "120304.137500",
          "120306.147500",
          "120308.155000",
          "120310.162500",
          "120312.170000",
          "120314.180000",
          "120316.187500",
          "120318.195000",
          "120320.202500",
          "120322.210000",
          "120324.220000",
          "120326.227500",
          "120328.235000",
          "120330.242500",
          "120332.250000",
          "120334.260000",
          "120336.267500",
          "120338.275000",
          "120340.282500",
          "120342.290000",
          "120344.300000",
          "120346.307500",
          "120348.315000",
          "120350.322500",
          "120352.332500",
          "120354.340000",
          "120356.347500",
          "120358.355000",
          "120400.362500",
          "120402.372500",
          "120404.380000",
          "120406.387500",
          "120408.395000",
          "120410.402500",
          "120412.412500",
          "120414.420000",
          "120416.427500",
          "120418.435000",
          "120420.445000",
          "120422.452500",
          "120424.460000",
          "120426.467500",
          "120428.475000",
          "120430.485000",
          "120432.492500",
          "120434.500000",
          "120436.507500",
          "120438.515000",
          "120440.525000",
          "120442.532500",
          "120444.540000",
          "120446.547500",
          "120448.557500",
          "120450.565000",
          "120452.572500",
          "120454.580000",
          "120456.587500"
        ],
        "ContentTime": [
          "115706.656000",
          "115706.671000",
          "115706.671000",
          "115706.671000",
          "115706.671000",
          "115706.671000",
          "115706.671000",
          "115706.687000",
          "115706.687000",
          "115706.687000",
          "115706.687000",
          "115706.687000",
          "115706.687000",
          "115706.703000",
          "115706.703000",
          "115706.703000",
          "115706.703000",
          "115706.703000",
          "115706.703000",
          "115706.703000",
          "115706.718000",
          "115706.718000",
          "115706.718000",
          "115746.656000",
          "115746.656000",
          "115746.656000",
          "115746.656000",
          "115746.671000",
          "115746.671000",
          "115746.671000",
          "115746.671000",
          "115746.671000",
          "115746.671000",
          "115746.671000",
          "115746.687000",
          "115746.687000",
          "115746.687000",
          "115746.687000",
          "115746.687000",
          "115746.687000",
          "115746.687000",
          "115746.687000",
          "115746.703000",
          "115806.656000",
          "115806.656000",
          "115806.656000",
          "115806.656000",
          "115806.671000",
          "115806.671000",
          "115806.671000",
          "115806.671000",
          "115806.671000",
          "115806.671000",
          "115846.656000",
          "115846.656000",
          "115846.656000",
          "115846.671000",
          "115846.671000",
          "115846.671000",
          "115846.671000",
          "115846.671000",
          "115846.671000",
          "115846.671000",
          "115846.671000",
          "115846.687000",
          "115846.687000",
          "115846.687000",
          "115846.687000",
          "115846.687000",
          "115846.687000",
          "115846.687000",
          "115846.687000",
          "115846.703000",
          "115926.656000",
          "115926.656000",
          "115926.656000",
          "115926.671000",
          "115926.671000",
          "115926.671000",
          "115926.671000",
          "115926.671000",
          "115926.671000",
          "115926.671000",
          "115926.671000",
          "115926.687000",
          "115926.687000",
          "115926.687000",
          "115926.687000",
          "115926.687000",
          "115926.687000",
          "115926.687000",
          "115926.703000",
          "115926.703000",
          "120006.656000",
          "120006.656000",
          "120006.656000",
          "120006.656000",
          "120006.671000",
          "120006.671000",
          "120006.671000",
          "120006.671000",
          "120006.671000",
          "120006.671000",
          "120006.671000",
          "120006.671000",
          "120006.718000",
          "120006.718000",
          "120006.718000",
          "120006.734000",
          "120006.734000",
          "120006.734000",
          "120006.734000",
          "120006.734000",
          "120046.656000",
          "120046.656000",
          "120046.656000",
          "120046.656000",
          "120046.671000",
          "120046.671000",
          "120046.671000",
          "120046.671000",
          "120046.671000",
          "120046.671000",
          "120046.687000",
          "120046.687000",
          "120046.687000",
          "120046.687000",
          "120046.687000",
          "120046.687000",
          "120046.703000",
          "120046.703000",
          "120046.703000",
          "120046.703000",
          "120126.656000",
          "120126.656000",
          "120126.656000",
          "120126.656000",
          "120126.671000",
          "120126.671000",
          "120126.671000",
          "120126.671000",
          "120126.671000",
          "120126.687000",
          "120126.687000",
          "120126.687000",
          "120126.687000",
          "120126.687000",
          "120126.687000",
          "120126.687000",
          "120126.703000",
          "120126.703000",
          "120126.703000",
          "120126.703000",
          "120206.656000",
          "120206.656000",
          "120206.656000",
          "120206.671000",
          "120206.671000",
          "120206.671000",
          "120206.671000",
          "120206.671000",
          "120206.671000",
          "120206.687000",
          "120206.687000",
          "120206.687000",
          "120206.687000",
          "120206.687000",
          "120206.687000",
          "120206.687000",
          "120206.703000",
          "120206.703000",
          "120206.703000",
          "120206.703000",
          "120246.656000",
          "120246.656000",
          "120246.656000",
          "120246.656000",
          "120246.671000",
          "120246.671000",
          "120246.671000",
          "120246.671000",
          "120246.671000",
          "120246.671000",
          "120246.671000",
          "120246.687000",
          "120246.687000",
          "120246.687000",
          "120246.687000",
          "120246.687000",
          "120246.687000",
          "120246.687000",
          "120246.687000",
          "120246.703000",
          "120326.656000",
          "120326.656000",
          "120326.656000",
          "120326.656000",
          "120326.671000",
          "120326.671000",
          "120326.671000",
          "120326.671000",
          "120326.671000",
          "120326.671000",
          "120326.687000",
          "120326.687000",
          "120326.687000",
          "120326.687000",
          "120326.687000",
          "120326.687000",
          "120326.687000",
          "120326.687000",
          "120326.703000",
          "120326.703000",
          "120406.656000",
          "120406.656000",
          "120406.656000",
          "120406.656000",
          "120406.671000",
          "120406.671000",
          "120406.671000",
          "120406.671000",
          "120406.671000",
          "120406.671000",
          "120406.671000",
          "120406.687000",
          "120406.687000",
          "120406.687000",
          "120406.687000",
          "120406.687000",
          "120406.703000",
          "120406.703000",
          "120406.703000",
          "120406.703000",
          "120446.656000",
          "120446.656000",
          "120446.656000",
          "120446.656000",
          "120446.671000",
          "120446.671000",
          "120446.671000",
          "120446.671000",
          "120446.671000",
          "120446.671000",
          "120446.671000",
          "120446.687000",
          "120446.687000",
          "120446.687000",
          "120446.687000",
          "120446.687000",
          "120446.687000",
          "120446.703000",
          "120446.703000",
          "120446.703000",
          "120455.859000",
          "120455.859000",
          "120455.859000",
          "120455.875000",
          "120455.875000"
        ],
        "InstanceCreationTime": [
          "115706.656000",
          "115706.671000",
          "115706.671000",
          "115706.671000",
          "115706.671000",
          "115706.671000",
          "115706.671000",
          "115706.687000",
          "115706.687000",
          "115706.687000",
          "115706.687000",
          "115706.687000",
          "115706.687000",
          "115706.703000",
          "115706.703000",
          "115706.703000",
          "115706.703000",
          "115706.703000",
          "115706.703000",
          "115706.703000",
          "115706.718000",
          "115706.718000",
          "115706.718000",
          "115746.656000",
          "115746.656000",
          "115746.656000",
          "115746.656000",
          "115746.671000",
          "115746.671000",
          "115746.671000",
          "115746.671000",
          "115746.671000",
          "115746.671000",
          "115746.671000",
          "115746.687000",
          "115746.687000",
          "115746.687000",
          "115746.687000",
          "115746.687000",
          "115746.687000",
          "115746.687000",
          "115746.687000",
          "115746.703000",
          "115806.656000",
          "115806.656000",
          "115806.656000",
          "115806.656000",
          "115806.671000",
          "115806.671000",
          "115806.671000",
          "115806.671000",
          "115806.671000",
          "115806.671000",
          "115846.656000",
          "115846.656000",
          "115846.656000",
          "115846.671000",
          "115846.671000",
          "115846.671000",
          "115846.671000",
          "115846.671000",
          "115846.671000",
          "115846.671000",
          "115846.671000",
          "115846.687000",
          "115846.687000",
          "115846.687000",
          "115846.687000",
          "115846.687000",
          "115846.687000",
          "115846.687000",
          "115846.687000",
          "115846.703000",
          "115926.656000",
          "115926.656000",
          "115926.656000",
          "115926.671000",
          "115926.671000",
          "115926.671000",
          "115926.671000",
          "115926.671000",
          "115926.671000",
          "115926.671000",
          "115926.671000",
          "115926.687000",
          "115926.687000",
          "115926.687000",
          "115926.687000",
          "115926.687000",
          "115926.687000",
          "115926.687000",
          "115926.703000",
          "115926.703000",
          "120006.656000",
          "120006.656000",
          "120006.656000",
          "120006.656000",
          "120006.671000",
          "120006.671000",
          "120006.671000",
          "120006.671000",
          "120006.671000",
          "120006.671000",
          "120006.671000",
          "120006.671000",
          "120006.718000",
          "120006.718000",
          "120006.718000",
          "120006.734000",
          "120006.734000",
          "120006.734000",
          "120006.734000",
          "120006.734000",
          "120046.656000",
          "120046.656000",
          "120046.656000",
          "120046.656000",
          "120046.671000",
          "120046.671000",
          "120046.671000",
          "120046.671000",
          "120046.671000",
          "120046.671000",
          "120046.687000",
          "120046.687000",
          "120046.687000",
          "120046.687000",
          "120046.687000",
          "120046.687000",
          "120046.703000",
          "120046.703000",
          "120046.703000",
          "120046.703000",
          "120126.656000",
          "120126.656000",
          "120126.656000",
          "120126.656000",
          "120126.671000",
          "120126.671000",
          "120126.671000",
          "120126.671000",
          "120126.671000",
          "120126.687000",
          "120126.687000",
          "120126.687000",
          "120126.687000",
          "120126.687000",
          "120126.687000",
          "120126.687000",
          "120126.703000",
          "120126.703000",
          "120126.703000",
          "120126.703000",
          "120206.656000",
          "120206.656000",
          "120206.656000",
          "120206.671000",
          "120206.671000",
          "120206.671000",
          "120206.671000",
          "120206.671000",
          "120206.671000",
          "120206.687000",
          "120206.687000",
          "120206.687000",
          "120206.687000",
          "120206.687000",
          "120206.687000",
          "120206.687000",
          "120206.703000",
          "120206.703000",
          "120206.703000",
          "120206.703000",
          "120246.656000",
          "120246.656000",
          "120246.656000",
          "120246.656000",
          "120246.671000",
          "120246.671000",
          "120246.671000",
          "120246.671000",
          "120246.671000",
          "120246.671000",
          "120246.671000",
          "120246.687000",
          "120246.687000",
          "120246.687000",
          "120246.687000",
          "120246.687000",
          "120246.687000",
          "120246.687000",
          "120246.687000",
          "120246.703000",
          "120326.656000",
          "120326.656000",
          "120326.656000",
          "120326.656000",
          "120326.671000",
          "120326.671000",
          "120326.671000",
          "120326.671000",
          "120326.671000",
          "120326.671000",
          "120326.687000",
          "120326.687000",
          "120326.687000",
          "120326.687000",
          "120326.687000",
          "120326.687000",
          "120326.687000",
          "120326.687000",
          "120326.703000",
          "120326.703000",
          "120406.656000",
          "120406.656000",
          "120406.656000",
          "120406.656000",
          "120406.671000",
          "120406.671000",
          "120406.671000",
          "120406.671000",
          "120406.671000",
          "120406.671000",
          "120406.671000",
