{
  "aor": 0.00100579766536965,
  "aqi": 0.006257343774319067,
  "bids_meta": {
    "AcquisitionMatrixPE": 68,
    "AcquisitionNumber": 1,
    "AcquisitionTime": "11:19:34.822500",
    "BandwidthPerPixelPhaseEncode": 31.289,
    "BaseResolution": 68,
    "CogAtlasID": "TODO",
    "CoilString": "C:HEA;HEP",
    "ConversionSoftware": "dcm2niix",
    "ConversionSoftwareVersion": "v1.0.20190902",
    "DerivedVendorReportedEchoSpacing": 0.000470002,
    "DeviceSerialNumber": "35450",
    "DwellTime": 3e-06,
    "EchoTime": 0.023,
    "EffectiveEchoSpacing": 0.000470002,
    "FlipAngle": 76,
    "ImageOrientationPatientDICOM": [
      1,
      0,
      0,
      0,
      0.988228,
      -0.152986
    ],
    "ImageType": [
      "ORIGINAL",
      "PRIMARY",
      "M",
      "ND",
      "MOSAIC"
    ],
    "ImagingFrequency": 123.219,
    "InPlanePhaseEncodingDirectionDICOM": "COL",
    "InstitutionAddress": "Univeristy_Ave._197_Newark_North_East_US_07102-1814",
    "InstitutionName": "RUBIC",
    "InstitutionalDepartmentName": "Department",
    "MRAcquisitionType": "2D",
    "MagneticFieldStrength": 3,
    "Manufacturer": "Siemens",
    "ManufacturersModelName": "TrioTim",
    "Modality": "MR",
    "PartialFourier": 1,
    "PatientPosition": "HFS",
    "PercentPhaseFOV": 100,
    "PhaseEncodingDirection": "j-",
    "PhaseEncodingSteps": 68,
    "PhaseResolution": 1,
    "PixelBandwidth": 2451,
    "ProcedureStepDescription": "Krekelberg_David",
    "ProtocolName": "ep2d_bold_CardGameEPI_2",
    "PulseSequenceDetails": "%SiemensSeq%_ep2d_bold",
    "ReceiveCoilName": "HeadMatrix",
    "ReconMatrixPE": 68,
    "RepetitionTime": 2,
    "SAR": 0.19174,
    "ScanOptions": "FS",
    "ScanningSequence": "EP",
    "SequenceName": "_epfid2d1_68",
    "SequenceVariant": "SK",
    "SeriesDescription": "ep2d_bold_CardGameEPI_2",
    "SeriesNumber": 8,
    "ShimSetting": [
      2100,
      -708,
      -7917,
      1414,
      287,
      -411,
      -2150,
      -14
    ],
    "SliceThickness": 2.5,
    "SliceTiming": [
      1.95,
      1.895,
      1.84,
      1.7825,
      1.7275,
      1.6725,
      1.615,
      1.56,
      1.505,
      1.45,
      1.3925,
      1.3375,
      1.2825,
      1.225,
      1.17,
      1.115,
      1.0575,
      1.0025,
      0.9475,
      0.89,
      0.835,
      0.78,
      0.725,
      0.6675,
      0.6125,
      0.5575,
      0.5,
      0.445,
      0.39,
      0.3325,
      0.2775,
      0.2225,
      0.1675,
      0.11,
      0.055,
      0
    ],
    "SoftwareVersions": "syngo_MR_B19",
    "SpacingBetweenSlices": 3,
    "StationName": "MRC35450",
    "TaskName": "cardgame",
    "TotalReadoutTime": 0.0314901,
    "TxRefAmp": 432.025,
    "dataset": "<unset>",
    "dcmmeta_affine": [
      [
        -3.0,
        0.0,
        0.0,
        100.6440658569336
      ],
      [
        0.0,
        2.9646852016448975,
        -0.4589575231075287,
        -66.07403564453125
      ],
      [
        0.0,
        0.4589575231075287,
        2.9646852016448975,
        -75.84114837646484
      ],
      [
        0.0,
        0.0,
        0.0,
        1.0
      ]
    ],
    "dcmmeta_reorient_transform": [
      [
        0.0,
        -1.0,
        0.0,
        67.0
      ],
      [
        1.0,
        0.0,
        0.0,
        0.0
      ],
      [
        0.0,
        0.0,
        1.0,
        0.0
      ],
      [
        0.0,
        0.0,
        0.0,
        1.0
      ]
    ],
    "dcmmeta_shape": [
      68,
      68,
      36,
      258
    ],
    "dcmmeta_slice_dim": 2,
    "dcmmeta_version": 0.6,
    "global": {
      "const": {
        "AcquisitionMatrix": [
          68,
          0,
          0,
          68
        ],
        "AngioFlag": "N",
        "BitsAllocated": 16,
        "BitsStored": 12,
        "Columns": 408,
        "EchoNumbers": 1,
        "EchoTime": 23.0,
        "EchoTrainLength": 1,
        "FlipAngle": 76.0,
        "HighBit": 11,
        "ImageOrientationPatient": [
          1.0,
          0.0,
          0.0,
          0.0,
          0.9882283809914,
          -0.1529858392241
        ],
        "ImagePositionPatient": [
          -610.64406776428,
          -636.55633969286,
          32.931784593931
        ],
        "ImageType": [
          "ORIGINAL",
          "PRIMARY",
          "M",
          "ND",
          "MOSAIC"
        ],
        "ImagedNucleus": "1H",
        "ImagingFrequency": 123.218836,
        "InPlanePhaseEncodingDirection": "COL",
        "MRAcquisitionType": "2D",
        "MagneticFieldStrength": 3.0,
        "Manufacturer": "SIEMENS",
        "ManufacturerModelName": "TrioTim",
        "Modality": "MR",
        "NumberOfAverages": 1.0,
        "NumberOfPhaseEncodingSteps": 68,
        "PercentPhaseFieldOfView": 100.0,
        "PercentSampling": 100.0,
        "PerformedProcedureStepStartTime": "103545.531000",
        "PhotometricInterpretation": "MONOCHROME2",
        "PixelBandwidth": 2451.0,
        "PixelRepresentation": 0,
        "PixelSpacing": [
          3.0,
          3.0
        ],
        "ProtocolName": "ep2d_bold_CardGameEPI_2",
        "RepetitionTime": 2000.0,
        "Rows": 408,
        "SAR": 0.19173954689154,
        "SamplesPerPixel": 1,
        "ScanOptions": "FS",
        "ScanningSequence": "EP",
        "SequenceName": "*epfid2d1_68",
        "SequenceVariant": "SK",
        "SeriesDescription": "ep2d_bold_CardGameEPI_2",
        "SeriesNumber": 8,
        "SeriesTime": "112019.187000",
        "SliceLocation": -64.839981668928,
        "SliceThickness": 2.5,
        "SmallestImagePixelValue": 0,
        "SoftwareVersions": "syngo MR B19",
        "SpacingBetweenSlices": 3.0000000229381,
        "SpecificCharacterSet": "ISO_IR 100",
        "StudyID": "1",
        "StudyTime": "103545.484000",
        "TransmitCoilName": "Body",
        "VariableFlipAngleFlag": "N",
        "WindowCenterWidthExplanation": "Algo1",
        "dBdt": 0.0
      },
      "slices": {}
    },
    "modality": "bold",
    "run_id": 2,
    "subject_id": "215",
    "task_id": "cardgame",
    "time": {
      "samples": {
        "AcquisitionNumber": [
          1,
          2,
          3,
          4,
          5,
          6,
          7,
          8,
          9,
          10,
          11,
          12,
          13,
          14,
          15,
          16,
          17,
          18,
          19,
          20,
          21,
          22,
          23,
          24,
          25,
          26,
          27,
          28,
          29,
          30,
          31,
          32,
          33,
          34,
          35,
          36,
          37,
          38,
          39,
          40,
          41,
          42,
          43,
          44,
          45,
          46,
          47,
          48,
          49,
          50,
          51,
          52,
          53,
          54,
          55,
          56,
          57,
          58,
          59,
          60,
          61,
          62,
          63,
          64,
          65,
          66,
          67,
          68,
          69,
          70,
          71,
          72,
          73,
          74,
          75,
          76,
          77,
          78,
          79,
          80,
          81,
          82,
          83,
          84,
          85,
          86,
          87,
          88,
          89,
          90,
          91,
          92,
          93,
          94,
          95,
          96,
          97,
          98,
          99,
          100,
          101,
          102,
          103,
          104,
          105,
          106,
          107,
          108,
          109,
          110,
          111,
          112,
          113,
          114,
          115,
          116,
          117,
          118,
          119,
          120,
          121,
          122,
          123,
          124,
          125,
          126,
          127,
          128,
          129,
          130,
          131,
          132,
          133,
          134,
          135,
          136,
          137,
          138,
          139,
          140,
          141,
          142,
          143,
          144,
          145,
          146,
          147,
          148,
          149,
          150,
          151,
          152,
          153,
          154,
          155,
          156,
          157,
          158,
          159,
          160,
          161,
          162,
          163,
          164,
          165,
          166,
          167,
          168,
          169,
          170,
          171,
          172,
          173,
          174,
          175,
          176,
          177,
          178,
          179,
          180,
          181,
          182,
          183,
          184,
          185,
          186,
          187,
          188,
          189,
          190,
          191,
          192,
          193,
          194,
          195,
          196,
          197,
          198,
          199,
          200,
          201,
          202,
          203,
          204,
          205,
          206,
          207,
          208,
          209,
          210,
          211,
          212,
          213,
          214,
          215,
          216,
          217,
          218,
          219,
          220,
          221,
          222,
          223,
          224,
          225,
          226,
          227,
          228,
          229,
          230,
          231,
          232,
          233,
          234,
          235,
          236,
          237,
          238,
          239,
          240,
          241,
          242,
          243,
          244,
          245,
          246,
          247,
          248,
          249,
          250,
          251,
          252,
          253,
          254,
          255,
          256,
          257,
          258
        ],
        "AcquisitionTime": [
          "111934.822500",
          "111936.830000",
          "111938.840000",
          "111940.847500",
          "111942.855000",
          "111944.862500",
          "111946.872500",
          "111948.880000",
          "111950.887500",
          "111952.895000",
          "111954.902500",
          "111956.912500",
          "111958.920000",
          "112000.927500",
          "112002.935000",
          "112004.942500",
          "112006.952500",
          "112008.960000",
          "112010.967500",
          "112012.975000",
          "112014.985000",
          "112016.992500",
          "112019.000000",
          "112021.007500",
          "112023.015000",
          "112025.025000",
          "112027.032500",
          "112029.040000",
          "112031.047500",
          "112033.055000",
          "112035.065000",
          "112037.072500",
          "112039.080000",
          "112041.087500",
          "112043.097500",
          "112045.105000",
          "112047.112500",
          "112049.120000",
          "112051.127500",
          "112053.137500",
          "112055.145000",
          "112057.152500",
          "112059.160000",
          "112101.167500",
          "112103.177500",
          "112105.185000",
          "112107.192500",
          "112109.200000",
          "112111.207500",
          "112113.217500",
          "112115.225000",
          "112117.232500",
          "112119.240000",
          "112121.250000",
          "112123.257500",
          "112125.265000",
          "112127.272500",
          "112129.280000",
          "112131.290000",
          "112133.297500",
          "112135.305000",
          "112137.312500",
          "112139.320000",
          "112141.330000",
          "112143.337500",
          "112145.345000",
          "112147.352500",
          "112149.362500",
          "112151.370000",
          "112153.377500",
          "112155.385000",
          "112157.392500",
          "112159.402500",
          "112201.410000",
          "112203.417500",
          "112205.425000",
          "112207.432500",
          "112209.442500",
          "112211.450000",
          "112213.457500",
          "112215.465000",
          "112217.475000",
          "112219.482500",
          "112221.490000",
          "112223.497500",
          "112225.505000",
          "112227.515000",
          "112229.522500",
          "112231.530000",
          "112233.537500",
          "112235.545000",
          "112237.555000",
          "112239.562500",
          "112241.570000",
          "112243.577500",
          "112245.587500",
          "112247.595000",
          "112249.602500",
          "112251.610000",
          "112253.617500",
          "112255.627500",
          "112257.635000",
          "112259.642500",
          "112301.650000",
          "112303.657500",
          "112305.667500",
          "112307.675000",
          "112309.682500",
          "112311.690000",
          "112313.697500",
          "112315.707500",
          "112317.715000",
          "112319.722500",
          "112321.730000",
          "112323.740000",
          "112325.747500",
          "112327.755000",
          "112329.762500",
          "112331.770000",
          "112333.780000",
          "112335.787500",
          "112337.795000",
          "112339.802500",
          "112341.810000",
          "112343.820000",
          "112345.827500",
          "112347.835000",
          "112349.842500",
          "112351.852500",
          "112353.860000",
          "112355.867500",
          "112357.875000",
          "112359.882500",
          "112401.892500",
          "112403.900000",
          "112405.907500",
          "112407.915000",
          "112409.922500",
          "112411.932500",
          "112413.940000",
          "112415.947500",
          "112417.955000",
          "112419.965000",
          "112421.972500",
          "112423.980000",
          "112425.987500",
          "112427.995000",
          "112430.005000",
          "112432.012500",
          "112434.020000",
          "112436.027500",
          "112438.035000",
          "112440.045000",
          "112442.052500",
          "112444.060000",
          "112446.067500",
          "112448.075000",
          "112450.085000",
          "112452.092500",
          "112454.100000",
          "112456.107500",
          "112458.117500",
          "112500.125000",
          "112502.132500",
          "112504.140000",
          "112506.147500",
          "112508.157500",
          "112510.165000",
          "112512.172500",
          "112514.180000",
          "112516.187500",
          "112518.197500",
          "112520.205000",
          "112522.212500",
          "112524.220000",
          "112526.230000",
          "112528.237500",
          "112530.245000",
          "112532.252500",
          "112534.260000",
          "112536.270000",
          "112538.277500",
          "112540.285000",
          "112542.292500",
          "112544.300000",
          "112546.310000",
          "112548.317500",
          "112550.325000",
          "112552.332500",
          "112554.342500",
          "112556.350000",
          "112558.357500",
          "112600.365000",
          "112602.372500",
          "112604.382500",
          "112606.390000",
          "112608.397500",
          "112610.405000",
          "112612.412500",
          "112614.422500",
          "112616.430000",
          "112618.437500",
          "112620.445000",
          "112622.452500",
          "112624.462500",
          "112626.470000",
          "112628.477500",
          "112630.485000",
          "112632.495000",
          "112634.502500",
          "112636.510000",
          "112638.517500",
          "112640.525000",
          "112642.535000",
          "112644.542500",
          "112646.550000",
          "112648.557500",
          "112650.565000",
          "112652.575000",
          "112654.582500",
          "112656.590000",
          "112658.597500",
          "112700.607500",
          "112702.615000",
          "112704.622500",
          "112706.630000",
          "112708.637500",
          "112710.647500",
          "112712.655000",
          "112714.662500",
          "112716.670000",
          "112718.677500",
          "112720.687500",
          "112722.695000",
          "112724.702500",
          "112726.710000",
          "112728.720000",
          "112730.727500",
          "112732.735000",
          "112734.742500",
          "112736.750000",
          "112738.760000",
          "112740.767500",
          "112742.775000",
          "112744.782500",
          "112746.790000",
          "112748.800000",
          "112750.807500",
          "112752.815000",
          "112754.822500",
          "112756.830000",
          "112758.840000",
          "112800.847500",
          "112802.855000",
          "112804.862500",
          "112806.872500",
          "112808.880000",
          "112810.887500"
        ],
        "ContentTime": [
          "112019.187000",
          "112019.203000",
          "112019.203000",
          "112019.203000",
          "112019.203000",
          "112019.203000",
          "112019.203000",
          "112019.203000",
          "112019.203000",
          "112019.218000",
          "112019.218000",
          "112019.218000",
          "112019.218000",
          "112019.218000",
          "112019.218000",
          "112019.218000",
          "112019.234000",
          "112019.234000",
          "112019.234000",
          "112019.234000",
          "112019.234000",
          "112019.234000",
          "112059.187000",
          "112059.187000",
          "112059.187000",
          "112059.203000",
          "112059.203000",
          "112059.203000",
          "112059.203000",
          "112059.203000",
          "112059.203000",
          "112059.203000",
          "112059.203000",
          "112059.218000",
          "112059.218000",
          "112059.218000",
          "112059.218000",
          "112059.218000",
          "112059.218000",
          "112059.218000",
          "112059.234000",
          "112059.234000",
          "112139.187000",
          "112139.187000",
          "112139.187000",
          "112139.203000",
          "112139.203000",
          "112139.203000",
          "112139.203000",
          "112139.203000",
          "112139.203000",
          "112139.203000",
          "112139.203000",
          "112139.218000",
          "112139.218000",
          "112139.218000",
          "112139.218000",
          "112139.218000",
          "112139.218000",
          "112139.218000",
          "112139.234000",
          "112139.234000",
          "112219.187000",
          "112219.187000",
          "112219.187000",
          "112219.187000",
          "112219.203000",
          "112219.203000",
          "112219.203000",
          "112219.203000",
          "112219.218000",
          "112219.218000",
          "112219.218000",
          "112219.218000",
          "112219.218000",
          "112219.218000",
          "112219.234000",
          "112219.234000",
          "112219.234000",
          "112219.234000",
          "112219.234000",
          "112219.234000",
          "112259.187000",
          "112259.187000",
          "112259.187000",
          "112259.187000",
          "112259.203000",
          "112259.203000",
          "112259.203000",
          "112259.203000",
          "112259.203000",
          "112259.203000",
          "112259.203000",
          "112259.218000",
          "112259.218000",
          "112259.218000",
          "112259.218000",
          "112259.218000",
          "112259.218000",
          "112259.218000",
          "112259.218000",
          "112259.234000",
          "112339.187000",
          "112339.187000",
          "112339.187000",
          "112339.203000",
          "112339.203000",
          "112339.203000",
          "112339.203000",
          "112339.203000",
          "112339.203000",
          "112339.203000",
          "112339.203000",
          "112339.218000",
          "112339.218000",
          "112339.218000",
          "112339.218000",
          "112339.218000",
          "112339.218000",
          "112339.218000",
          "112339.234000",
          "112339.234000",
          "112419.187000",
          "112419.187000",
          "112419.187000",
          "112419.187000",
          "112419.203000",
          "112419.203000",
          "112419.203000",
          "112419.203000",
          "112419.203000",
          "112419.203000",
          "112419.203000",
          "112419.218000",
          "112419.218000",
          "112419.218000",
          "112419.218000",
          "112419.218000",
          "112419.218000",
          "112419.218000",
          "112419.218000",
          "112419.234000",
          "112459.187000",
          "112459.187000",
          "112459.187000",
          "112459.203000",
          "112459.203000",
          "112459.203000",
          "112459.203000",
          "112459.203000",
          "112459.203000",
          "112459.203000",
          "112459.203000",
          "112459.218000",
          "112459.218000",
          "112459.218000",
          "112459.218000",
          "112459.218000",
          "112459.218000",
          "112459.218000",
          "112459.234000",
          "112459.234000",
          "112539.187000",
          "112539.187000",
          "112539.187000",
          "112539.187000",
          "112539.203000",
          "112539.203000",
          "112539.203000",
          "112539.203000",
          "112539.203000",
          "112539.203000",
          "112539.203000",
          "112539.218000",
          "112539.218000",
          "112539.218000",
          "112539.218000",
          "112539.218000",
          "112539.218000",
          "112539.218000",
          "112539.234000",
          "112539.234000",
          "112619.187000",
          "112619.187000",
          "112619.187000",
          "112619.203000",
          "112619.203000",
          "112619.203000",
          "112619.203000",
          "112619.203000",
          "112619.203000",
          "112619.203000",
          "112619.203000",
          "112619.218000",
          "112619.218000",
          "112619.218000",
          "112619.218000",
          "112619.218000",
          "112619.218000",
          "112619.218000",
          "112619.234000",
          "112619.234000",
          "112659.187000",
          "112659.187000",
          "112659.187000",
          "112659.203000",
          "112659.203000",
          "112659.203000",
          "112659.203000",
          "112659.203000",
          "112659.203000",
          "112659.203000",
          "112659.203000",
          "112659.218000",
          "112659.218000",
          "112659.218000",
          "112659.218000",
          "112659.218000",
          "112659.218000",
          "112659.218000",
          "112659.234000",
          "112659.234000",
          "112739.187000",
          "112739.187000",
          "112739.187000",
          "112739.203000",
          "112739.203000",
          "112739.203000",
          "112739.203000",
          "112739.203000",
          "112739.203000",
          "112739.203000",
          "112739.203000",
          "112739.218000",
          "112739.218000",
          "112739.218000",
          "112739.218000",
          "112739.218000",
          "112739.218000",
          "112739.218000",
          "112739.234000",
          "112739.234000",
          "112810.109000",
          "112810.125000",
          "112810.125000",
          "112810.125000",
          "112810.125000",
          "112810.125000",
          "112810.125000",
          "112810.125000",
          "112810.125000",
          "112810.140000",
          "112810.140000",
          "112810.140000",
          "112810.140000",
          "112810.140000",
          "112810.140000",
          "112810.140000"
        ],
        "InstanceCreationTime": [
          "112019.187000",
          "112019.203000",
          "112019.203000",
          "112019.203000",
          "112019.203000",
          "112019.203000",
          "112019.203000",
          "112019.203000",
          "112019.203000",
          "112019.218000",
          "112019.218000",
          "112019.218000",
          "112019.218000",
          "112019.218000",
          "112019.218000",
          "112019.218000",
          "112019.234000",
          "112019.234000",
          "112019.234000",
          "112019.234000",
          "112019.234000",
          "112019.234000",
          "112059.187000",
          "112059.187000",
          "112059.187000",
          "112059.203000",
          "112059.203000",
          "112059.203000",
          "112059.203000",
          "112059.203000",
          "112059.203000",
          "112059.203000",
          "112059.203000",
          "112059.218000",
          "112059.218000",
          "112059.218000",
          "112059.218000",
          "112059.218000",
          "112059.218000",
          "112059.218000",
          "112059.234000",
          "112059.234000",
          "112139.187000",
          "112139.187000",
          "112139.187000",
          "112139.203000",
          "112139.203000",
          "112139.203000",
          "112139.203000",
          "112139.203000",
          "112139.203000",
          "112139.203000",
          "112139.203000",
          "112139.218000",
          "112139.218000",
          "112139.218000",
          "112139.218000",
          "112139.218000",
          "112139.218000",
          "112139.218000",
          "112139.234000",
          "112139.234000",
          "112219.187000",
          "112219.187000",
          "112219.187000",
          "112219.187000",
          "112219.203000",
          "112219.203000",
          "112219.203000",
          "112219.203000",
          "112219.218000",
          "112219.218000",
          "112219.218000",
          "112219.218000",
          "112219.218000",
          "112219.218000",
          "112219.234000",
          "112219.234000",
          "112219.234000",
          "112219.234000",
          "112219.234000",
          "112219.234000",
          "112259.187000",
          "112259.187000",
          "112259.187000",
          "112259.187000",
          "112259.203000",
          "112259.203000",
          "112259.203000",
          "112259.203000",
          "112259.203000",
          "112259.203000",
          "112259.203000",
          "112259.218000",
          "112259.218000",
          "112259.218000",
          "112259.218000",
          "112259.218000",
          "112259.218000",
          "112259.218000",
          "112259.218000",
          "112259.234000",
          "112339.187000",
          "112339.187000",
          "112339.187000",
          "112339.203000",
          "112339.203000",
          "112339.203000",
          "112339.203000",
          "112339.203000",
          "112339.203000",
          "112339.203000",
          "112339.203000",
          "112339.218000",
          "112339.218000",
          "112339.218000",
          "112339.218000",
          "112339.218000",
          "112339.218000",
          "112339.218000",
          "112339.234000",
          "112339.234000",
          "112419.187000",
          "112419.187000",
          "112419.187000",
          "112419.187000",
          "112419.203000",
          "112419.203000",
          "112419.203000",
          "112419.203000",
          "112419.203000",
          "112419.203000",
          "112419.203000",
          "112419.218000",
          "112419.218000",
          "112419.218000",
          "112419.218000",
          "112419.218000",
          "112419.218000",
          "112419.218000",
          "112419.218000",
          "112419.234000",
          "112459.187000",
          "112459.187000",
          "112459.187000",
          "112459.203000",
          "112459.203000",
          "112459.203000",
          "112459.203000",
          "112459.203000",
          "112459.203000",
          "112459.203000",
          "112459.203000",
          "112459.218000",
          "112459.218000",
          "112459.218000",
          "112459.218000",
          "112459.218000",
          "112459.218000",
          "112459.218000",
          "112459.234000",
          "112459.234000",
          "112539.187000",
          "112539.187000",
          "112539.187000",
          "112539.187000",
          "112539.203000",
          "112539.203000",
          "112539.203000",
          "112539.203000",
          "112539.203000",
          "112539.203000",
          "112539.203000",
          "112539.218000",
          "112539.218000",
          "112539.218000",
          "112539.218000",
          "112539.218000",
          "112539.218000",
          "112539.218000",
          "112539.234000",
          "112539.234000",
          "112619.187000",
          "112619.187000",
          "112619.187000",
          "112619.203000",
          "112619.203000",
          "112619.203000",
          "112619.203000",
          "112619.203000",
          "112619.203000",
          "112619.203000",
          "112619.203000",
          "112619.218000",
          "112619.218000",
          "112619.218000",
          "112619.218000",
          "112619.218000",
          "112619.218000",
          "112619.218000",
          "112619.234000",
          "112619.234000",
          "112659.187000",
          "112659.187000",
          "112659.187000",
          "112659.203000",
          "112659.203000",
          "112659.203000",
          "112659.203000",
          "112659.203000",
          "112659.203000",
          "112659.203000",
          "112659.203000",
          "112659.218000",
          "112659.218000",
          "112659.218000",
          "112659.218000",
          "112659.218000",
          "112659.218000",
          "112659.218000",
          "112659.234000",
          "112659.234000",
          "112739.187000",
          "112739.187000",
