{
  "aor": 0.0025863813229571983,
  "aqi": 0.023490997898832685,
  "bids_meta": {
    "AcquisitionMatrixPE": 68,
    "AcquisitionNumber": 1,
    "AcquisitionTime": "12:09:39.465000",
    "BandwidthPerPixelPhaseEncode": 31.289,
    "BaseResolution": 68,
    "CogAtlasID": "TODO",
    "CoilString": "C:HEA;HEP",
    "ConversionSoftware": "dcm2niix",
    "ConversionSoftwareVersion": "v1.0.20190902",
    "DerivedVendorReportedEchoSpacing": 0.000470002,
    "DeviceSerialNumber": "35450",
    "DwellTime": 3e-06,
    "EchoTime": 0.023,
    "EffectiveEchoSpacing": 0.000470002,
    "FlipAngle": 76,
    "ImageOrientationPatientDICOM": [
      1,
      0,
      0,
      0,
      0.998135,
      -0.0610485
    ],
    "ImageType": [
      "ORIGINAL",
      "PRIMARY",
      "M",
      "ND",
      "MOSAIC"
    ],
    "ImagingFrequency": 123.219,
    "InPlanePhaseEncodingDirectionDICOM": "COL",
    "InstitutionAddress": "Univeristy_Ave._197_Newark_North_East_US_07102-1814",
    "InstitutionName": "RUBIC",
    "InstitutionalDepartmentName": "Department",
    "MRAcquisitionType": "2D",
    "MagneticFieldStrength": 3,
    "Manufacturer": "Siemens",
    "ManufacturersModelName": "TrioTim",
    "Modality": "MR",
    "PartialFourier": 1,
    "PatientPosition": "HFS",
    "PercentPhaseFOV": 100,
    "PhaseEncodingDirection": "j-",
    "PhaseEncodingSteps": 68,
    "PhaseResolution": 1,
    "PixelBandwidth": 2451,
    "ProcedureStepDescription": "Krekelberg_David",
    "ProtocolName": "ep2d_bold_CardGameEPI_2",
    "PulseSequenceDetails": "%SiemensSeq%_ep2d_bold",
    "ReceiveCoilName": "HeadMatrix",
    "ReconMatrixPE": 68,
    "RepetitionTime": 2,
    "SAR": 0.216498,
    "ScanOptions": "FS",
    "ScanningSequence": "EP",
    "SequenceName": "_epfid2d1_68",
    "SequenceVariant": "SK",
    "SeriesDescription": "ep2d_bold_CardGameEPI_2",
    "SeriesNumber": 8,
    "ShimSetting": [
      1959,
      -642,
      -7555,
      728,
      93,
      -121,
      101,
      -74
    ],
    "SliceThickness": 2.5,
    "SliceTiming": [
      1.95,
      1.895,
      1.84,
      1.7825,
      1.7275,
      1.6725,
      1.6175,
      1.56,
      1.505,
      1.45,
      1.3925,
      1.3375,
      1.2825,
      1.225,
      1.17,
      1.115,
      1.0575,
      1.0025,
      0.9475,
      0.8925,
      0.835,
      0.78,
      0.725,
      0.6675,
      0.6125,
      0.5575,
      0.5,
      0.445,
      0.39,
      0.335,
      0.2775,
      0.2225,
      0.1675,
      0.11,
      0.055,
      0
    ],
    "SoftwareVersions": "syngo_MR_B19",
    "SpacingBetweenSlices": 3,
    "StationName": "MRC35450",
    "TaskName": "cardgame",
    "TotalReadoutTime": 0.0314901,
    "TxRefAmp": 375.27,
    "dataset": "<unset>",
    "dcmmeta_affine": [
      [
        -3.0,
        0.0,
        0.0,
        101.32203674316406
      ],
      [
        0.0,
        2.9944043159484863,
        -0.18314561247825623,
        -73.23741149902344
      ],
      [
        0.0,
        0.18314561247825623,
        2.9944043159484863,
        -38.10689926147461
      ],
      [
        0.0,
        0.0,
        0.0,
        1.0
      ]
    ],
    "dcmmeta_reorient_transform": [
      [
        0.0,
        -1.0,
        0.0,
        67.0
      ],
      [
        1.0,
        0.0,
        0.0,
        0.0
      ],
      [
        0.0,
        0.0,
        1.0,
        0.0
      ],
      [
        0.0,
        0.0,
        0.0,
        1.0
      ]
    ],
    "dcmmeta_shape": [
      68,
      68,
      36,
      258
    ],
    "dcmmeta_slice_dim": 2,
    "dcmmeta_version": 0.6,
    "global": {
      "const": {
        "AcquisitionMatrix": [
          68,
          0,
          0,
          68
        ],
        "AngioFlag": "N",
        "BitsAllocated": 16,
        "BitsStored": 12,
        "Columns": 408,
        "EchoNumbers": 1,
        "EchoTime": 23.0,
        "EchoTrainLength": 1,
        "FlipAngle": 76.0,
        "HighBit": 11,
        "ImageOrientationPatient": [
          1.0,
          0.0,
          0.0,
          0.0,
          0.99813479839876,
          -0.0610485399126
        ],
        "ImagePositionPatient": [
          -611.32203388214,
          -636.43642707048,
          5.2986113337671
        ],
        "ImageType": [
          "ORIGINAL",
          "PRIMARY",
          "M",
          "ND",
          "MOSAIC"
        ],
        "ImagedNucleus": "1H",
        "ImagingFrequency": 123.218519,
        "InPlanePhaseEncodingDirection": "COL",
        "MRAcquisitionType": "2D",
        "MagneticFieldStrength": 3.0,
        "Manufacturer": "SIEMENS",
        "ManufacturerModelName": "TrioTim",
        "Modality": "MR",
        "NumberOfAverages": 1.0,
        "NumberOfPhaseEncodingSteps": 68,
        "PercentPhaseFieldOfView": 100.0,
        "PercentSampling": 100.0,
        "PerformedProcedureStepStartTime": "112512.640000",
        "PhotometricInterpretation": "MONOCHROME2",
        "PixelBandwidth": 2451.0,
        "PixelRepresentation": 0,
        "PixelSpacing": [
          3.0,
          3.0
        ],
        "ProtocolName": "ep2d_bold_CardGameEPI_2",
        "RepetitionTime": 2000.0,
        "Rows": 408,
        "SAR": 0.21649807567094,
        "SamplesPerPixel": 1,
        "ScanOptions": "FS",
        "ScanningSequence": "EP",
        "SequenceName": "*epfid2d1_68",
        "SequenceVariant": "SK",
        "SeriesDescription": "ep2d_bold_CardGameEPI_2",
        "SeriesNumber": 8,
        "SeriesTime": "121021.015000",
        "SliceLocation": -33.564786264452,
        "SliceThickness": 2.5,
        "SmallestImagePixelValue": 0,
        "SoftwareVersions": "syngo MR B19",
        "SpacingBetweenSlices": 2.999999989645,
        "SpecificCharacterSet": "ISO_IR 100",
        "StudyID": "1",
        "StudyTime": "112512.531000",
        "TransmitCoilName": "Body",
        "VariableFlipAngleFlag": "N",
        "WindowCenterWidthExplanation": "Algo1",
        "dBdt": 0.0
      },
      "slices": {}
    },
    "modality": "bold",
    "run_id": 2,
    "subject_id": "222",
    "task_id": "cardgame",
    "time": {
      "samples": {
        "AcquisitionNumber": [
          1,
          2,
          3,
          4,
          5,
          6,
          7,
          8,
          9,
          10,
          11,
          12,
          13,
          14,
          15,
          16,
          17,
          18,
          19,
          20,
          21,
          22,
          23,
          24,
          25,
          26,
          27,
          28,
          29,
          30,
          31,
          32,
          33,
          34,
          35,
          36,
          37,
          38,
          39,
          40,
          41,
          42,
          43,
          44,
          45,
          46,
          47,
          48,
          49,
          50,
          51,
          52,
          53,
          54,
          55,
          56,
          57,
          58,
          59,
          60,
          61,
          62,
          63,
          64,
          65,
          66,
          67,
          68,
          69,
          70,
          71,
          72,
          73,
          74,
          75,
          76,
          77,
          78,
          79,
          80,
          81,
          82,
          83,
          84,
          85,
          86,
          87,
          88,
          89,
          90,
          91,
          92,
          93,
          94,
          95,
          96,
          97,
          98,
          99,
          100,
          101,
          102,
          103,
          104,
          105,
          106,
          107,
          108,
          109,
          110,
          111,
          112,
          113,
          114,
          115,
          116,
          117,
          118,
          119,
          120,
          121,
          122,
          123,
          124,
          125,
          126,
          127,
          128,
          129,
          130,
          131,
          132,
          133,
          134,
          135,
          136,
          137,
          138,
          139,
          140,
          141,
          142,
          143,
          144,
          145,
          146,
          147,
          148,
          149,
          150,
          151,
          152,
          153,
          154,
          155,
          156,
          157,
          158,
          159,
          160,
          161,
          162,
          163,
          164,
          165,
          166,
          167,
          168,
          169,
          170,
          171,
          172,
          173,
          174,
          175,
          176,
          177,
          178,
          179,
          180,
          181,
          182,
          183,
          184,
          185,
          186,
          187,
          188,
          189,
          190,
          191,
          192,
          193,
          194,
          195,
          196,
          197,
          198,
          199,
          200,
          201,
          202,
          203,
          204,
          205,
          206,
          207,
          208,
          209,
          210,
          211,
          212,
          213,
          214,
          215,
          216,
          217,
          218,
          219,
          220,
          221,
          222,
          223,
          224,
          225,
          226,
          227,
          228,
          229,
          230,
          231,
          232,
          233,
          234,
          235,
          236,
          237,
          238,
          239,
          240,
          241,
          242,
          243,
          244,
          245,
          246,
          247,
          248,
          249,
          250,
          251,
          252,
          253,
          254,
          255,
          256,
          257,
          258
        ],
        "AcquisitionTime": [
          "120939.465000",
          "120941.475000",
          "120943.482500",
          "120945.490000",
          "120947.497500",
          "120949.505000",
          "120951.515000",
          "120953.522500",
          "120955.530000",
          "120957.537500",
          "120959.545000",
          "121001.555000",
          "121003.562500",
          "121005.570000",
          "121007.577500",
          "121009.587500",
          "121011.595000",
          "121013.602500",
          "121015.610000",
          "121017.617500",
          "121019.627500",
          "121021.635000",
          "121023.642500",
          "121025.650000",
          "121027.657500",
          "121029.667500",
          "121031.675000",
          "121033.682500",
          "121035.690000",
          "121037.700000",
          "121039.707500",
          "121041.715000",
          "121043.722500",
          "121045.730000",
          "121047.740000",
          "121049.747500",
          "121051.755000",
          "121053.762500",
          "121055.770000",
          "121057.780000",
          "121059.787500",
          "121101.795000",
          "121103.802500",
          "121105.812500",
          "121107.820000",
          "121109.827500",
          "121111.835000",
          "121113.842500",
          "121115.852500",
          "121117.860000",
          "121119.867500",
          "121121.875000",
          "121123.882500",
          "121125.892500",
          "121127.900000",
          "121129.907500",
          "121131.915000",
          "121133.922500",
          "121135.932500",
          "121137.940000",
          "121139.947500",
          "121141.955000",
          "121143.965000",
          "121145.972500",
          "121147.980000",
          "121149.987500",
          "121151.995000",
          "121154.005000",
          "121156.012500",
          "121158.020000",
          "121200.027500",
          "121202.035000",
          "121204.045000",
          "121206.052500",
          "121208.060000",
          "121210.067500",
          "121212.077500",
          "121214.085000",
          "121216.092500",
          "121218.100000",
          "121220.107500",
          "121222.117500",
          "121224.125000",
          "121226.132500",
          "121228.140000",
          "121230.147500",
          "121232.157500",
          "121234.165000",
          "121236.172500",
          "121238.180000",
          "121240.190000",
          "121242.197500",
          "121244.205000",
          "121246.212500",
          "121248.220000",
          "121250.230000",
          "121252.237500",
          "121254.245000",
          "121256.252500",
          "121258.260000",
          "121300.270000",
          "121302.277500",
          "121304.285000",
          "121306.292500",
          "121308.302500",
          "121310.310000",
          "121312.317500",
          "121314.325000",
          "121316.332500",
          "121318.342500",
          "121320.350000",
          "121322.357500",
          "121324.365000",
          "121326.372500",
          "121328.382500",
          "121330.390000",
          "121332.397500",
          "121334.405000",
          "121336.412500",
          "121338.422500",
          "121340.430000",
          "121342.437500",
          "121344.445000",
          "121346.455000",
          "121348.462500",
          "121350.470000",
          "121352.477500",
          "121354.485000",
          "121356.495000",
          "121358.502500",
          "121400.510000",
          "121402.517500",
          "121404.525000",
          "121406.535000",
          "121408.542500",
          "121410.550000",
          "121412.557500",
          "121414.567500",
          "121416.575000",
          "121418.582500",
          "121420.590000",
          "121422.597500",
          "121424.607500",
          "121426.615000",
          "121428.622500",
          "121430.630000",
          "121432.637500",
          "121434.647500",
          "121436.655000",
          "121438.662500",
          "121440.670000",
          "121442.680000",
          "121444.687500",
          "121446.695000",
          "121448.702500",
          "121450.710000",
          "121452.720000",
          "121454.727500",
          "121456.735000",
          "121458.742500",
          "121500.750000",
          "121502.760000",
          "121504.767500",
          "121506.775000",
          "121508.782500",
          "121510.790000",
          "121512.800000",
          "121514.807500",
          "121516.815000",
          "121518.822500",
          "121520.832500",
          "121522.840000",
          "121524.847500",
          "121526.855000",
          "121528.862500",
          "121530.872500",
          "121532.880000",
          "121534.887500",
          "121536.895000",
          "121538.902500",
          "121540.912500",
          "121542.920000",
          "121544.927500",
          "121546.935000",
          "121548.945000",
          "121550.952500",
          "121552.960000",
          "121554.967500",
          "121556.975000",
          "121558.985000",
          "121600.992500",
          "121603.000000",
          "121605.007500",
          "121607.015000",
          "121609.025000",
          "121611.032500",
          "121613.040000",
          "121615.047500",
          "121617.057500",
          "121619.065000",
          "121621.072500",
          "121623.080000",
          "121625.087500",
          "121627.097500",
          "121629.105000",
          "121631.112500",
          "121633.120000",
          "121635.127500",
          "121637.137500",
          "121639.145000",
          "121641.152500",
          "121643.160000",
          "121645.167500",
          "121647.177500",
          "121649.185000",
          "121651.192500",
          "121653.200000",
          "121655.210000",
          "121657.217500",
          "121659.225000",
          "121701.232500",
          "121703.240000",
          "121705.250000",
          "121707.257500",
          "121709.265000",
          "121711.272500",
          "121713.280000",
          "121715.290000",
          "121717.297500",
          "121719.305000",
          "121721.312500",
          "121723.322500",
          "121725.330000",
          "121727.337500",
          "121729.345000",
          "121731.352500",
          "121733.362500",
          "121735.370000",
          "121737.377500",
          "121739.385000",
          "121741.392500",
          "121743.402500",
          "121745.410000",
          "121747.417500",
          "121749.425000",
          "121751.435000",
          "121753.442500",
          "121755.450000",
          "121757.457500",
          "121759.465000",
          "121801.475000",
          "121803.482500",
          "121805.490000",
          "121807.497500",
          "121809.505000",
          "121811.515000",
          "121813.522500",
          "121815.530000"
        ],
        "ContentTime": [
          "121021.015000",
          "121021.015000",
          "121021.015000",
          "121021.015000",
          "121021.015000",
          "121021.015000",
          "121021.031000",
          "121021.031000",
          "121021.031000",
          "121021.031000",
          "121021.031000",
          "121021.031000",
          "121021.031000",
          "121021.046000",
          "121021.046000",
          "121021.046000",
          "121021.046000",
          "121021.046000",
          "121021.046000",
          "121021.046000",
          "121101.000000",
          "121101.015000",
          "121101.015000",
          "121101.031000",
          "121101.031000",
          "121101.031000",
          "121101.031000",
          "121101.031000",
          "121101.031000",
          "121101.031000",
          "121101.031000",
          "121101.046000",
          "121101.046000",
          "121101.046000",
          "121101.046000",
          "121101.046000",
          "121101.046000",
          "121101.046000",
          "121101.062000",
          "121101.062000",
          "121141.000000",
          "121141.015000",
          "121141.015000",
          "121141.015000",
          "121141.015000",
          "121141.015000",
          "121141.015000",
          "121141.015000",
          "121141.031000",
          "121141.031000",
          "121141.031000",
          "121141.031000",
          "121141.031000",
          "121141.031000",
          "121141.031000",
          "121141.031000",
          "121141.046000",
          "121141.046000",
          "121141.046000",
          "121141.046000",
          "121221.000000",
          "121221.015000",
          "121221.015000",
          "121221.015000",
          "121221.015000",
          "121221.015000",
          "121221.015000",
          "121221.015000",
          "121221.015000",
          "121221.031000",
          "121221.031000",
          "121221.031000",
          "121221.031000",
          "121221.031000",
          "121221.031000",
          "121221.031000",
          "121221.046000",
          "121221.046000",
          "121221.046000",
          "121221.046000",
          "121301.000000",
          "121301.015000",
          "121301.015000",
          "121301.015000",
          "121301.015000",
          "121301.015000",
          "121301.015000",
          "121301.015000",
          "121301.031000",
          "121301.031000",
          "121301.031000",
          "121301.031000",
          "121301.031000",
          "121301.031000",
          "121301.046000",
          "121301.046000",
          "121301.046000",
          "121301.046000",
          "121301.046000",
          "121301.046000",
          "121341.000000",
          "121341.015000",
          "121341.015000",
          "121341.015000",
          "121341.015000",
          "121341.015000",
          "121341.015000",
          "121341.015000",
          "121341.031000",
          "121341.031000",
          "121341.031000",
          "121341.031000",
          "121341.031000",
          "121341.031000",
          "121341.031000",
          "121341.031000",
          "121341.046000",
          "121341.046000",
          "121341.046000",
          "121341.046000",
          "121421.000000",
          "121421.015000",
          "121421.015000",
          "121421.015000",
          "121421.015000",
          "121421.015000",
          "121421.015000",
          "121421.015000",
          "121421.031000",
          "121421.031000",
          "121421.031000",
          "121421.031000",
          "121421.031000",
          "121421.031000",
          "121421.046000",
          "121421.046000",
          "121421.046000",
          "121421.046000",
          "121421.046000",
          "121421.046000",
          "121501.000000",
          "121501.015000",
          "121501.015000",
          "121501.015000",
          "121501.015000",
          "121501.015000",
          "121501.015000",
          "121501.015000",
          "121501.015000",
          "121501.031000",
          "121501.031000",
          "121501.031000",
          "121501.031000",
          "121501.031000",
          "121501.031000",
          "121501.031000",
          "121501.046000",
          "121501.046000",
          "121501.046000",
          "121501.046000",
          "121541.000000",
          "121541.015000",
          "121541.015000",
          "121541.015000",
          "121541.015000",
          "121541.015000",
          "121541.015000",
          "121541.015000",
          "121541.031000",
          "121541.031000",
          "121541.031000",
          "121541.031000",
          "121541.031000",
          "121541.031000",
          "121541.031000",
          "121541.046000",
          "121541.046000",
          "121541.046000",
          "121541.046000",
          "121541.046000",
          "121621.000000",
          "121621.015000",
          "121621.015000",
          "121621.015000",
          "121621.015000",
          "121621.015000",
          "121621.015000",
          "121621.015000",
          "121621.031000",
          "121621.031000",
          "121621.031000",
          "121621.031000",
          "121621.031000",
          "121621.031000",
          "121621.031000",
          "121621.031000",
          "121621.046000",
          "121621.046000",
          "121621.046000",
          "121621.046000",
          "121701.000000",
          "121701.015000",
          "121701.015000",
          "121701.015000",
          "121701.015000",
          "121701.015000",
          "121701.015000",
          "121701.015000",
          "121701.031000",
          "121701.031000",
          "121701.031000",
          "121701.031000",
          "121701.031000",
          "121701.031000",
          "121701.031000",
          "121701.031000",
          "121701.046000",
          "121701.046000",
          "121701.046000",
          "121701.046000",
          "121741.000000",
          "121741.015000",
          "121741.015000",
          "121741.015000",
          "121741.015000",
          "121741.031000",
          "121741.031000",
          "121741.031000",
          "121741.031000",
          "121741.031000",
          "121741.031000",
          "121741.046000",
          "121741.046000",
          "121741.046000",
          "121741.046000",
          "121741.046000",
          "121741.046000",
          "121741.046000",
          "121741.046000",
          "121741.062000",
          "121815.375000",
          "121815.375000",
          "121815.375000",
          "121815.375000",
          "121815.390000",
          "121815.390000",
          "121815.390000",
          "121815.390000",
          "121815.390000",
          "121815.390000",
          "121815.390000",
          "121815.406000",
          "121815.406000",
          "121815.406000",
          "121815.406000",
          "121815.406000",
          "121815.406000",
          "121815.406000"
        ],
        "InstanceCreationTime": [
          "121021.015000",
          "121021.015000",
          "121021.015000",
          "121021.015000",
          "121021.015000",
          "121021.015000",
          "121021.031000",
          "121021.031000",
          "121021.031000",
          "121021.031000",
          "121021.031000",
          "121021.031000",
          "121021.031000",
          "121021.046000",
          "121021.046000",
          "121021.046000",
          "121021.046000",
          "121021.046000",
          "121021.046000",
          "121021.046000",
          "121101.000000",
          "121101.015000",
          "121101.015000",
          "121101.031000",
          "121101.031000",
          "121101.031000",
          "121101.031000",
          "121101.031000",
          "121101.031000",
          "121101.031000",
          "121101.031000",
          "121101.046000",
          "121101.046000",
          "121101.046000",
          "121101.046000",
          "121101.046000",
          "121101.046000",
          "121101.046000",
          "121101.062000",
          "121101.062000",
          "121141.000000",
          "121141.015000",
          "121141.015000",
          "121141.015000",
          "121141.015000",
          "121141.015000",
          "121141.015000",
          "121141.015000",
          "121141.031000",
          "121141.031000",
          "121141.031000",
          "121141.031000",
          "121141.031000",
          "121141.031000",
          "121141.031000",
          "121141.031000",
          "121141.046000",
          "121141.046000",
          "121141.046000",
          "121141.046000",
          "121221.000000",
          "121221.015000",
          "121221.015000",
          "121221.015000",
          "121221.015000",
          "121221.015000",
          "121221.015000",
          "121221.015000",
          "121221.015000",
          "121221.031000",
          "121221.031000",
          "121221.031000",
          "121221.031000",
          "121221.031000",
          "121221.031000",
          "121221.031000",
          "121221.046000",
          "121221.046000",
          "121221.046000",
          "121221.046000",
          "121301.000000",
          "121301.015000",
          "121301.015000",
          "121301.015000",
          "121301.015000",
          "121301.015000",
          "121301.015000",
          "121301.015000",
          "121301.031000",
          "121301.031000",
          "121301.031000",
          "121301.031000",
          "121301.031000",
          "121301.031000",
          "121301.046000",
          "121301.046000",
          "121301.046000",
          "121301.046000",
          "121301.046000",
          "121301.046000",
          "121341.000000",
          "121341.015000",
          "121341.015000",
          "121341.015000",
          "121341.015000",
          "121341.015000",
          "121341.015000",
          "121341.015000",
          "121341.031000",
          "121341.031000",
          "121341.031000",
          "121341.031000",
          "121341.031000",
          "121341.031000",
          "121341.031000",
          "121341.031000",
          "121341.046000",
          "121341.046000",
          "121341.046000",
          "121341.046000",
          "121421.000000",
          "121421.015000",
          "121421.015000",
          "121421.015000",
          "121421.015000",
          "121421.015000",
          "121421.015000",
          "121421.015000",
          "121421.031000",
          "121421.031000",
          "121421.031000",
          "121421.031000",
          "121421.031000",
          "121421.031000",
          "121421.046000",
          "121421.046000",
          "121421.046000",
          "121421.046000",
          "121421.046000",
          "121421.046000",
          "121501.000000",
          "121501.015000",
          "121501.015000",
          "121501.015000",
          "121501.015000",
          "121501.015000",
          "121501.015000",
          "121501.015000",
          "121501.015000",
          "121501.031000",
          "121501.031000",
          "121501.031000",
          "121501.031000",
          "121501.031000",
          "121501.031000",
          "121501.031000",
          "121501.046000",
          "121501.046000",
          "121501.046000",
          "121501.046000",
          "121541.000000",
          "121541.015000",
          "121541.015000",
          "121541.015000",
          "121541.015000",
          "121541.015000",
          "121541.015000",
          "121541.015000",
          "121541.031000",
          "121541.031000",
          "121541.031000",
          "121541.031000",
          "121541.031000",
          "121541.031000",
          "121541.031000",
          "121541.046000",
          "121541.046000",
          "121541.046000",
          "121541.046000",
          "121541.046000",
          "121621.000000",
          "121621.015000",
          "121621.015000",
          "121621.015000",
          "121621.015000",
          "121621.015000",
          "121621.015000",
          "121621.015000",
          "121621.031000",
          "121621.031000",
          "121621.031000",
          "121621.031000",
          "121621.031000",
          "121621.031000",
          "121621.031000",
          "121621.031000",
          "121621.046000",
          "121621.046000",
          "121621.046000",
          "121621.046000",
          "121701.000000",
          "121701.015000",
          "121701.015000",
          "121701.015000",
          "121701.015000",
          "121701.015000",
          "121701.015000",
          "121701.015000",
          "121701.031000",
          "121701.031000",
          "121701.031000",
          "121701.031000",
          "121701.031000",
          "121701.031000",
          "121701.031000",
          "121701.031000",
          "121701.046000",
          "121701.046000",
          "121701.046000",
          "121701.046000",
          "121741.000000",
          "121741.015000",
          "121741.015000",
          "121741.015000",
