{
  "aor": 0.004222490272373541,
  "aqi": 0.014646378560311283,
  "bids_meta": {
    "AcquisitionMatrixPE": 68,
    "AcquisitionNumber": 1,
    "AcquisitionTime": "12:49:16.107500",
    "BandwidthPerPixelPhaseEncode": 31.289,
    "BaseResolution": 68,
    "CogAtlasID": "TODO",
    "CoilString": "C:HEA;HEP",
    "ConversionSoftware": "dcm2niix",
    "ConversionSoftwareVersion": "v1.0.20190902",
    "DerivedVendorReportedEchoSpacing": 0.000470002,
    "DeviceSerialNumber": "35450",
    "DwellTime": 3e-06,
    "EchoTime": 0.023,
    "EffectiveEchoSpacing": 0.000470002,
    "FlipAngle": 76,
    "ImageOrientationPatientDICOM": [
      1,
      0,
      0,
      0,
      0.998135,
      -0.0610485
    ],
    "ImageType": [
      "ORIGINAL",
      "PRIMARY",
      "M",
      "ND",
      "MOSAIC"
    ],
    "ImagingFrequency": 123.219,
    "InPlanePhaseEncodingDirectionDICOM": "COL",
    "InstitutionAddress": "Univeristy_Ave._197_Newark_North_East_US_07102-1814",
    "InstitutionName": "RUBIC",
    "InstitutionalDepartmentName": "Department",
    "MRAcquisitionType": "2D",
    "MagneticFieldStrength": 3,
    "Manufacturer": "Siemens",
    "ManufacturersModelName": "TrioTim",
    "Modality": "MR",
    "PartialFourier": 1,
    "PatientPosition": "HFS",
    "PercentPhaseFOV": 100,
    "PhaseEncodingDirection": "j-",
    "PhaseEncodingSteps": 68,
    "PhaseResolution": 1,
    "PixelBandwidth": 2451,
    "ProcedureStepDescription": "Krekelberg_David",
    "ProtocolName": "ep2d_bold_CardGameEPI_3",
    "PulseSequenceDetails": "%SiemensSeq%_ep2d_bold",
    "ReceiveCoilName": "HeadMatrix",
    "ReconMatrixPE": 68,
    "RepetitionTime": 2,
    "SAR": 0.216498,
    "ScanOptions": "FS",
    "ScanningSequence": "EP",
    "SequenceName": "_epfid2d1_68",
    "SequenceVariant": "SK",
    "SeriesDescription": "ep2d_bold_CardGameEPI_3",
    "SeriesNumber": 12,
    "ShimSetting": [
      1959,
      -642,
      -7555,
      728,
      93,
      -121,
      101,
      -74
    ],
    "SliceThickness": 2.5,
    "SliceTiming": [
      1.95,
      1.895,
      1.84,
      1.7825,
      1.7275,
      1.6725,
      1.615,
      1.56,
      1.505,
      1.4475,
      1.3925,
      1.3375,
      1.2825,
      1.225,
      1.17,
      1.115,
      1.0575,
      1.0025,
      0.9475,
      0.89,
      0.835,
      0.78,
      0.725,
      0.6675,
      0.6125,
      0.5575,
      0.5,
      0.445,
      0.39,
      0.3325,
      0.2775,
      0.2225,
      0.165,
      0.11,
      0.055,
      0
    ],
    "SoftwareVersions": "syngo_MR_B19",
    "SpacingBetweenSlices": 3,
    "StationName": "MRC35450",
    "TaskName": "cardgame",
    "TotalReadoutTime": 0.0314901,
    "TxRefAmp": 375.27,
    "dataset": "<unset>",
    "dcmmeta_affine": [
      [
        -3.0,
        0.0,
        0.0,
        101.32203674316406
      ],
      [
        0.0,
        2.9944043159484863,
        -0.18314561247825623,
        -73.23741149902344
      ],
      [
        0.0,
        0.18314561247825623,
        2.9944043159484863,
        -38.10689926147461
      ],
      [
        0.0,
        0.0,
        0.0,
        1.0
      ]
    ],
    "dcmmeta_reorient_transform": [
      [
        0.0,
        -1.0,
        0.0,
        67.0
      ],
      [
        1.0,
        0.0,
        0.0,
        0.0
      ],
      [
        0.0,
        0.0,
        1.0,
        0.0
      ],
      [
        0.0,
        0.0,
        0.0,
        1.0
      ]
    ],
    "dcmmeta_shape": [
      68,
      68,
      36,
      258
    ],
    "dcmmeta_slice_dim": 2,
    "dcmmeta_version": 0.6,
    "global": {
      "const": {
        "AcquisitionMatrix": [
          68,
          0,
          0,
          68
        ],
        "AngioFlag": "N",
        "BitsAllocated": 16,
        "BitsStored": 12,
        "Columns": 408,
        "EchoNumbers": 1,
        "EchoTime": 23.0,
        "EchoTrainLength": 1,
        "FlipAngle": 76.0,
        "HighBit": 11,
        "ImageOrientationPatient": [
          1.0,
          0.0,
          0.0,
          0.0,
          0.99813479839876,
          -0.0610485399126
        ],
        "ImagePositionPatient": [
          -611.32203388214,
          -636.43642707048,
          5.2986113337671
        ],
        "ImageType": [
          "ORIGINAL",
          "PRIMARY",
          "M",
          "ND",
          "MOSAIC"
        ],
        "ImagedNucleus": "1H",
        "ImagingFrequency": 123.218584,
        "InPlanePhaseEncodingDirection": "COL",
        "MRAcquisitionType": "2D",
        "MagneticFieldStrength": 3.0,
        "Manufacturer": "SIEMENS",
        "ManufacturerModelName": "TrioTim",
        "Modality": "MR",
        "NumberOfAverages": 1.0,
        "NumberOfPhaseEncodingSteps": 68,
        "PercentPhaseFieldOfView": 100.0,
        "PercentSampling": 100.0,
        "PerformedProcedureStepStartTime": "112512.640000",
        "PhotometricInterpretation": "MONOCHROME2",
        "PixelBandwidth": 2451.0,
        "PixelRepresentation": 0,
        "PixelSpacing": [
          3.0,
          3.0
        ],
        "ProtocolName": "ep2d_bold_CardGameEPI_3",
        "RepetitionTime": 2000.0,
        "Rows": 408,
        "SAR": 0.21649807567094,
        "SamplesPerPixel": 1,
        "ScanOptions": "FS",
        "ScanningSequence": "EP",
        "SequenceName": "*epfid2d1_68",
        "SequenceVariant": "SK",
        "SeriesDescription": "ep2d_bold_CardGameEPI_3",
        "SeriesNumber": 12,
        "SeriesTime": "124921.031000",
        "SliceLocation": -33.564786264452,
        "SliceThickness": 2.5,
        "SmallestImagePixelValue": 0,
        "SoftwareVersions": "syngo MR B19",
        "SpacingBetweenSlices": 2.999999989645,
        "SpecificCharacterSet": "ISO_IR 100",
        "StudyID": "1",
        "StudyTime": "112512.531000",
        "TransmitCoilName": "Body",
        "VariableFlipAngleFlag": "N",
        "WindowCenterWidthExplanation": "Algo1",
        "dBdt": 0.0
      },
      "slices": {}
    },
    "modality": "bold",
    "run_id": 3,
    "subject_id": "222",
    "task_id": "cardgame",
    "time": {
      "samples": {
        "AcquisitionNumber": [
          1,
          2,
          3,
          4,
          5,
          6,
          7,
          8,
          9,
          10,
          11,
          12,
          13,
          14,
          15,
          16,
          17,
          18,
          19,
          20,
          21,
          22,
          23,
          24,
          25,
          26,
          27,
          28,
          29,
          30,
          31,
          32,
          33,
          34,
          35,
          36,
          37,
          38,
          39,
          40,
          41,
          42,
          43,
          44,
          45,
          46,
          47,
          48,
          49,
          50,
          51,
          52,
          53,
          54,
          55,
          56,
          57,
          58,
          59,
          60,
          61,
          62,
          63,
          64,
          65,
          66,
          67,
          68,
          69,
          70,
          71,
          72,
          73,
          74,
          75,
          76,
          77,
          78,
          79,
          80,
          81,
          82,
          83,
          84,
          85,
          86,
          87,
          88,
          89,
          90,
          91,
          92,
          93,
          94,
          95,
          96,
          97,
          98,
          99,
          100,
          101,
          102,
          103,
          104,
          105,
          106,
          107,
          108,
          109,
          110,
          111,
          112,
          113,
          114,
          115,
          116,
          117,
          118,
          119,
          120,
          121,
          122,
          123,
          124,
          125,
          126,
          127,
          128,
          129,
          130,
          131,
          132,
          133,
          134,
          135,
          136,
          137,
          138,
          139,
          140,
          141,
          142,
          143,
          144,
          145,
          146,
          147,
          148,
          149,
          150,
          151,
          152,
          153,
          154,
          155,
          156,
          157,
          158,
          159,
          160,
          161,
          162,
          163,
          164,
          165,
          166,
          167,
          168,
          169,
          170,
          171,
          172,
          173,
          174,
          175,
          176,
          177,
          178,
          179,
          180,
          181,
          182,
          183,
          184,
          185,
          186,
          187,
          188,
          189,
          190,
          191,
          192,
          193,
          194,
          195,
          196,
          197,
          198,
          199,
          200,
          201,
          202,
          203,
          204,
          205,
          206,
          207,
          208,
          209,
          210,
          211,
          212,
          213,
          214,
          215,
          216,
          217,
          218,
          219,
          220,
          221,
          222,
          223,
          224,
          225,
          226,
          227,
          228,
          229,
          230,
          231,
          232,
          233,
          234,
          235,
          236,
          237,
          238,
          239,
          240,
          241,
          242,
          243,
          244,
          245,
          246,
          247,
          248,
          249,
          250,
          251,
          252,
          253,
          254,
          255,
          256,
          257,
          258
        ],
        "AcquisitionTime": [
          "124916.107500",
          "124918.115000",
          "124920.125000",
          "124922.132500",
          "124924.140000",
          "124926.147500",
          "124928.155000",
          "124930.165000",
          "124932.172500",
          "124934.180000",
          "124936.187500",
          "124938.197500",
          "124940.205000",
          "124942.212500",
          "124944.220000",
          "124946.227500",
          "124948.237500",
          "124950.245000",
          "124952.252500",
          "124954.260000",
          "124956.267500",
          "124958.277500",
          "125000.285000",
          "125002.292500",
          "125004.300000",
          "125006.310000",
          "125008.317500",
          "125010.325000",
          "125012.332500",
          "125014.340000",
          "125016.350000",
          "125018.357500",
          "125020.365000",
          "125022.372500",
          "125024.380000",
          "125026.390000",
          "125028.397500",
          "125030.405000",
          "125032.412500",
          "125034.422500",
          "125036.430000",
          "125038.437500",
          "125040.445000",
          "125042.452500",
          "125044.462500",
          "125046.470000",
          "125048.477500",
          "125050.485000",
          "125052.492500",
          "125054.502500",
          "125056.510000",
          "125058.517500",
          "125100.525000",
          "125102.532500",
          "125104.542500",
          "125106.550000",
          "125108.557500",
          "125110.565000",
          "125112.575000",
          "125114.582500",
          "125116.590000",
          "125118.597500",
          "125120.605000",
          "125122.615000",
          "125124.622500",
          "125126.630000",
          "125128.637500",
          "125130.645000",
          "125132.655000",
          "125134.662500",
          "125136.670000",
          "125138.677500",
          "125140.687500",
          "125142.695000",
          "125144.702500",
          "125146.710000",
          "125148.717500",
          "125150.727500",
          "125152.735000",
          "125154.742500",
          "125156.750000",
          "125158.757500",
          "125200.767500",
          "125202.775000",
          "125204.782500",
          "125206.790000",
          "125208.800000",
          "125210.807500",
          "125212.815000",
          "125214.822500",
          "125216.830000",
          "125218.840000",
          "125220.847500",
          "125222.855000",
          "125224.862500",
          "125226.870000",
          "125228.880000",
          "125230.887500",
          "125232.895000",
          "125234.902500",
          "125236.912500",
          "125238.920000",
          "125240.927500",
          "125242.935000",
          "125244.942500",
          "125246.952500",
          "125248.960000",
          "125250.967500",
          "125252.975000",
          "125254.982500",
          "125256.992500",
          "125259.000000",
          "125301.007500",
          "125303.015000",
          "125305.022500",
          "125307.032500",
          "125309.040000",
          "125311.047500",
          "125313.055000",
          "125315.065000",
          "125317.072500",
          "125319.080000",
          "125321.087500",
          "125323.095000",
          "125325.105000",
          "125327.112500",
          "125329.120000",
          "125331.127500",
          "125333.135000",
          "125335.145000",
          "125337.152500",
          "125339.160000",
          "125341.167500",
          "125343.177500",
          "125345.185000",
          "125347.192500",
          "125349.200000",
          "125351.207500",
          "125353.217500",
          "125355.225000",
          "125357.232500",
          "125359.240000",
          "125401.247500",
          "125403.257500",
          "125405.265000",
          "125407.272500",
          "125409.280000",
          "125411.290000",
          "125413.297500",
          "125415.305000",
          "125417.312500",
          "125419.320000",
          "125421.330000",
          "125423.337500",
          "125425.345000",
          "125427.352500",
          "125429.360000",
          "125431.370000",
          "125433.377500",
          "125435.385000",
          "125437.392500",
          "125439.400000",
          "125441.410000",
          "125443.417500",
          "125445.425000",
          "125447.432500",
          "125449.442500",
          "125451.450000",
          "125453.457500",
          "125455.465000",
          "125457.472500",
          "125459.482500",
          "125501.490000",
          "125503.497500",
          "125505.505000",
          "125507.512500",
          "125509.522500",
          "125511.530000",
          "125513.537500",
          "125515.545000",
          "125517.555000",
          "125519.562500",
          "125521.570000",
          "125523.577500",
          "125525.585000",
          "125527.595000",
          "125529.602500",
          "125531.610000",
          "125533.617500",
          "125535.625000",
          "125537.635000",
          "125539.642500",
          "125541.650000",
          "125543.657500",
          "125545.667500",
          "125547.675000",
          "125549.682500",
          "125551.690000",
          "125553.697500",
          "125555.707500",
          "125557.715000",
          "125559.722500",
          "125601.730000",
          "125603.737500",
          "125605.747500",
          "125607.755000",
          "125609.762500",
          "125611.770000",
          "125613.777500",
          "125615.787500",
          "125617.795000",
          "125619.802500",
          "125621.810000",
          "125623.820000",
          "125625.827500",
          "125627.835000",
          "125629.842500",
          "125631.850000",
          "125633.860000",
          "125635.867500",
          "125637.875000",
          "125639.882500",
          "125641.890000",
          "125643.900000",
          "125645.907500",
          "125647.915000",
          "125649.922500",
          "125651.932500",
          "125653.940000",
          "125655.947500",
          "125657.955000",
          "125659.962500",
          "125701.972500",
          "125703.980000",
          "125705.987500",
          "125707.995000",
          "125710.002500",
          "125712.012500",
          "125714.020000",
          "125716.027500",
          "125718.035000",
          "125720.045000",
          "125722.052500",
          "125724.060000",
          "125726.067500",
          "125728.075000",
          "125730.085000",
          "125732.092500",
          "125734.100000",
          "125736.107500",
          "125738.115000",
          "125740.125000",
          "125742.132500",
          "125744.140000",
          "125746.147500",
          "125748.155000",
          "125750.165000",
          "125752.172500"
        ],
        "ContentTime": [
          "124921.031000",
          "124921.031000",
          "125001.015000",
          "125001.031000",
          "125001.031000",
          "125001.031000",
          "125001.031000",
          "125001.031000",
          "125001.031000",
          "125001.046000",
          "125001.046000",
          "125001.046000",
          "125001.046000",
          "125001.046000",
          "125001.046000",
          "125001.046000",
          "125001.062000",
          "125001.062000",
          "125001.062000",
          "125001.062000",
          "125001.062000",
          "125001.062000",
          "125041.015000",
          "125041.031000",
          "125041.031000",
          "125041.031000",
          "125041.031000",
          "125041.031000",
          "125041.031000",
          "125041.031000",
          "125041.046000",
          "125041.046000",
          "125041.046000",
          "125041.046000",
          "125041.046000",
          "125041.046000",
          "125041.046000",
          "125041.046000",
          "125041.062000",
          "125041.062000",
          "125041.062000",
          "125041.062000",
          "125121.015000",
          "125121.031000",
          "125121.031000",
          "125121.031000",
          "125121.031000",
          "125121.031000",
          "125121.031000",
          "125121.031000",
          "125121.046000",
          "125121.046000",
          "125121.046000",
          "125121.046000",
          "125121.046000",
          "125121.046000",
          "125121.046000",
          "125121.062000",
          "125121.062000",
          "125121.062000",
          "125121.062000",
          "125121.062000",
          "125201.015000",
          "125201.031000",
          "125201.031000",
          "125201.031000",
          "125201.031000",
          "125201.031000",
          "125201.031000",
          "125201.031000",
          "125201.046000",
          "125201.046000",
          "125201.046000",
          "125201.046000",
          "125201.046000",
          "125201.046000",
          "125201.046000",
          "125201.046000",
          "125201.062000",
          "125201.062000",
          "125201.062000",
          "125201.062000",
          "125241.015000",
          "125241.031000",
          "125241.031000",
          "125241.031000",
          "125241.031000",
          "125241.031000",
          "125241.031000",
          "125241.046000",
          "125241.046000",
          "125241.046000",
          "125241.046000",
          "125241.046000",
          "125241.046000",
          "125241.046000",
          "125241.062000",
          "125241.062000",
          "125241.062000",
          "125241.062000",
          "125241.062000",
          "125241.078000",
          "125321.015000",
          "125321.031000",
          "125321.031000",
          "125321.031000",
          "125321.031000",
          "125321.031000",
          "125321.031000",
          "125321.031000",
          "125321.046000",
          "125321.046000",
          "125321.046000",
          "125321.046000",
          "125321.046000",
          "125321.046000",
          "125321.046000",
          "125321.062000",
          "125321.062000",
          "125321.062000",
          "125321.062000",
          "125321.062000",
          "125401.015000",
          "125401.031000",
          "125401.031000",
          "125401.031000",
          "125401.031000",
          "125401.031000",
          "125401.031000",
          "125401.031000",
          "125401.046000",
          "125401.046000",
          "125401.046000",
          "125401.046000",
          "125401.046000",
          "125401.046000",
          "125401.046000",
          "125401.062000",
          "125401.062000",
          "125401.062000",
          "125401.062000",
          "125401.062000",
          "125441.015000",
          "125441.031000",
          "125441.031000",
          "125441.031000",
          "125441.031000",
          "125441.031000",
          "125441.031000",
          "125441.031000",
          "125441.046000",
          "125441.046000",
          "125441.046000",
          "125441.046000",
          "125441.046000",
          "125441.046000",
          "125441.046000",
          "125441.046000",
          "125441.062000",
          "125441.062000",
          "125441.062000",
          "125441.062000",
          "125521.015000",
          "125521.031000",
          "125521.031000",
          "125521.031000",
          "125521.031000",
          "125521.031000",
          "125521.031000",
          "125521.031000",
          "125521.046000",
          "125521.046000",
          "125521.046000",
          "125521.046000",
          "125521.046000",
          "125521.046000",
          "125521.046000",
          "125521.046000",
          "125521.062000",
          "125521.062000",
          "125521.062000",
          "125521.062000",
          "125601.015000",
          "125601.031000",
          "125601.031000",
          "125601.031000",
          "125601.031000",
          "125601.031000",
          "125601.031000",
          "125601.031000",
          "125601.046000",
          "125601.046000",
          "125601.046000",
          "125601.062000",
          "125601.062000",
          "125601.062000",
          "125601.062000",
          "125601.078000",
          "125601.078000",
          "125601.078000",
          "125601.078000",
          "125601.078000",
          "125641.015000",
          "125641.031000",
          "125641.031000",
          "125641.031000",
          "125641.031000",
          "125641.031000",
          "125641.031000",
          "125641.031000",
          "125641.046000",
          "125641.046000",
          "125641.046000",
          "125641.046000",
          "125641.046000",
          "125641.046000",
          "125641.046000",
          "125641.046000",
          "125641.062000",
          "125641.062000",
          "125641.062000",
          "125641.062000",
          "125721.015000",
          "125721.031000",
          "125721.031000",
          "125721.031000",
          "125721.031000",
          "125721.031000",
          "125721.031000",
          "125721.031000",
          "125721.046000",
          "125721.046000",
          "125721.046000",
          "125721.046000",
          "125721.046000",
          "125721.046000",
          "125721.046000",
          "125721.062000",
          "125721.062000",
          "125721.062000",
          "125721.062000",
          "125721.062000",
          "125751.437000",
          "125751.437000",
          "125751.437000",
          "125751.437000",
          "125751.437000",
          "125751.453000",
          "125751.453000",
          "125751.453000",
          "125751.453000",
          "125751.453000",
          "125751.453000",
          "125751.453000",
          "125751.453000",
          "125751.468000",
          "125751.468000",
          "125751.468000"
        ],
        "InstanceCreationTime": [
          "124921.031000",
          "124921.031000",
          "125001.015000",
          "125001.031000",
          "125001.031000",
          "125001.031000",
          "125001.031000",
          "125001.031000",
          "125001.031000",
          "125001.046000",
          "125001.046000",
          "125001.046000",
          "125001.046000",
          "125001.046000",
          "125001.046000",
          "125001.046000",
          "125001.062000",
          "125001.062000",
          "125001.062000",
          "125001.062000",
          "125001.062000",
          "125001.062000",
          "125041.015000",
          "125041.031000",
          "125041.031000",
          "125041.031000",
          "125041.031000",
          "125041.031000",
          "125041.031000",
          "125041.031000",
          "125041.046000",
          "125041.046000",
          "125041.046000",
          "125041.046000",
          "125041.046000",
          "125041.046000",
          "125041.046000",
          "125041.046000",
          "125041.062000",
          "125041.062000",
          "125041.062000",
          "125041.062000",
          "125121.015000",
          "125121.031000",
          "125121.031000",
          "125121.031000",
          "125121.031000",
          "125121.031000",
          "125121.031000",
          "125121.031000",
          "125121.046000",
          "125121.046000",
          "125121.046000",
          "125121.046000",
          "125121.046000",
          "125121.046000",
          "125121.046000",
          "125121.062000",
          "125121.062000",
          "125121.062000",
          "125121.062000",
          "125121.062000",
          "125201.015000",
          "125201.031000",
          "125201.031000",
          "125201.031000",
          "125201.031000",
          "125201.031000",
          "125201.031000",
          "125201.031000",
          "125201.046000",
          "125201.046000",
          "125201.046000",
          "125201.046000",
          "125201.046000",
          "125201.046000",
          "125201.046000",
          "125201.046000",
          "125201.062000",
          "125201.062000",
          "125201.062000",
          "125201.062000",
          "125241.015000",
          "125241.031000",
          "125241.031000",
          "125241.031000",
          "125241.031000",
          "125241.031000",
          "125241.031000",
          "125241.046000",
          "125241.046000",
          "125241.046000",
          "125241.046000",
          "125241.046000",
          "125241.046000",
          "125241.046000",
          "125241.062000",
          "125241.062000",
          "125241.062000",
          "125241.062000",
          "125241.062000",
          "125241.078000",
          "125321.015000",
          "125321.031000",
          "125321.031000",
          "125321.031000",
          "125321.031000",
          "125321.031000",
          "125321.031000",
          "125321.031000",
          "125321.046000",
          "125321.046000",
          "125321.046000",
          "125321.046000",
          "125321.046000",
          "125321.046000",
          "125321.046000",
          "125321.062000",
          "125321.062000",
          "125321.062000",
          "125321.062000",
          "125321.062000",
          "125401.015000",
          "125401.031000",
          "125401.031000",
          "125401.031000",
          "125401.031000",
          "125401.031000",
          "125401.031000",
          "125401.031000",
          "125401.046000",
          "125401.046000",
          "125401.046000",
          "125401.046000",
          "125401.046000",
          "125401.046000",
          "125401.046000",
          "125401.062000",
          "125401.062000",
          "125401.062000",
          "125401.062000",
          "125401.062000",
          "125441.015000",
          "125441.031000",
          "125441.031000",
          "125441.031000",
          "125441.031000",
          "125441.031000",
          "125441.031000",
          "125441.031000",
          "125441.046000",
          "125441.046000",
          "125441.046000",
          "125441.046000",
          "125441.046000",
          "125441.046000",
          "125441.046000",
          "125441.046000",
          "125441.062000",
          "125441.062000",
          "125441.062000",
          "125441.062000",
          "125521.015000",
          "125521.031000",
          "125521.031000",
          "125521.031000",
          "125521.031000",
          "125521.031000",
          "125521.031000",
          "125521.031000",
          "125521.046000",
          "125521.046000",
          "125521.046000",
          "125521.046000",
          "125521.046000",
          "125521.046000",
          "125521.046000",
          "125521.046000",
          "125521.062000",
          "125521.062000",
          "125521.062000",
          "125521.062000",
          "125601.015000",
          "125601.031000",
          "125601.031000",
          "125601.031000",
          "125601.031000",
          "125601.031000",
          "125601.031000",
          "125601.031000",
          "125601.046000",
          "125601.046000",
          "125601.046000",
          "125601.062000",
          "125601.062000",
          "125601.062000",
          "125601.062000",
          "125601.078000",
          "125601.078000",
          "125601.078000",
          "125601.078000",
          "125601.078000",
          "125641.015000",
          "125641.031000",
          "125641.031000",
          "125641.031000",
          "125641.031000",
          "125641.031000",
          "125641.031000",
          "125641.031000",
          "125641.046000",
          "125641.046000",
          "125641.046000",
          "125641.046000",
          "125641.046000",
          "125641.046000",
          "125641.046000",
          "125641.046000",
          "125641.062000",
          "125641.062000",
          "125641.062000",
          "125641.062000",
          "125721.015000",
          "125721.031000",
