{
  "aor": 0.005316443514644352,
  "aqi": 0.027496668619246864,
  "bids_meta": {
    "AcquisitionMatrixPE": 68,
    "AcquisitionNumber": 1,
    "AcquisitionTime": "12:39:40.760000",
    "BandwidthPerPixelPhaseEncode": 31.289,
    "BaseResolution": 68,
    "CogAtlasID": "TODO",
    "CoilString": "C:HEA;HEP",
    "ConversionSoftware": "dcm2niix",
    "ConversionSoftwareVersion": "v1.0.20190902",
    "DerivedVendorReportedEchoSpacing": 0.000470002,
    "DeviceSerialNumber": "35450",
    "DwellTime": 3e-06,
    "EchoTime": 0.023,
    "EffectiveEchoSpacing": 0.000470002,
    "FlipAngle": 76,
    "ImageOrientationPatientDICOM": [
      1,
      0,
      0,
      0,
      0.998135,
      -0.0610485
    ],
    "ImageType": [
      "ORIGINAL",
      "PRIMARY",
      "M",
      "ND",
      "MOSAIC"
    ],
    "ImagingFrequency": 123.219,
    "InPlanePhaseEncodingDirectionDICOM": "COL",
    "InstitutionAddress": "Univeristy_Ave._197_Newark_North_East_US_07102-1814",
    "InstitutionName": "RUBIC",
    "InstitutionalDepartmentName": "Department",
    "MRAcquisitionType": "2D",
    "MagneticFieldStrength": 3,
    "Manufacturer": "Siemens",
    "ManufacturersModelName": "TrioTim",
    "Modality": "MR",
    "PartialFourier": 1,
    "PatientPosition": "HFS",
    "PercentPhaseFOV": 100,
    "PhaseEncodingDirection": "j-",
    "PhaseEncodingSteps": 68,
    "PhaseResolution": 1,
    "PixelBandwidth": 2451,
    "ProcedureStepDescription": "Krekelberg_David",
    "ProtocolName": "ep2d_bold_RestEPI_4",
    "PulseSequenceDetails": "%SiemensSeq%_ep2d_bold",
    "ReceiveCoilName": "HeadMatrix",
    "ReconMatrixPE": 68,
    "RepetitionTime": 2,
    "SAR": 0.216452,
    "ScanOptions": "FS",
    "ScanningSequence": "EP",
    "SequenceName": "_epfid2d1_68",
    "SequenceVariant": "SK",
    "SeriesDescription": "ep2d_bold_RestEPI_4",
    "SeriesNumber": 11,
    "ShimSetting": [
      1959,
      -642,
      -7555,
      728,
      93,
      -121,
      101,
      -74
    ],
    "SliceThickness": 2.5,
    "SliceTiming": [
      1.95,
      1.895,
      1.84,
      1.7825,
      1.7275,
      1.6725,
      1.615,
      1.56,
      1.505,
      1.45,
      1.3925,
      1.3375,
      1.2825,
      1.225,
      1.17,
      1.115,
      1.0575,
      1.0025,
      0.9475,
      0.89,
      0.835,
      0.78,
      0.725,
      0.6675,
      0.6125,
      0.5575,
      0.5,
      0.445,
      0.39,
      0.3325,
      0.2775,
      0.2225,
      0.165,
      0.11,
      0.055,
      0
    ],
    "SoftwareVersions": "syngo_MR_B19",
    "SpacingBetweenSlices": 3,
    "StationName": "MRC35450",
    "TaskName": "rest",
    "TotalReadoutTime": 0.0314901,
    "TxRefAmp": 375.27,
    "dataset": "<unset>",
    "dcmmeta_affine": [
      [
        -3.0,
        0.0,
        0.0,
        101.32203674316406
      ],
      [
        0.0,
        2.9944043159484863,
        -0.18314561247825623,
        -73.23741149902344
      ],
      [
        0.0,
        0.18314561247825623,
        2.9944043159484863,
        -38.10689926147461
      ],
      [
        0.0,
        0.0,
        0.0,
        1.0
      ]
    ],
    "dcmmeta_reorient_transform": [
      [
        0.0,
        -1.0,
        0.0,
        67.0
      ],
      [
        1.0,
        0.0,
        0.0,
        0.0
      ],
      [
        0.0,
        0.0,
        1.0,
        0.0
      ],
      [
        0.0,
        0.0,
        0.0,
        1.0
      ]
    ],
    "dcmmeta_shape": [
      68,
      68,
      36,
      240
    ],
    "dcmmeta_slice_dim": 2,
    "dcmmeta_version": 0.6,
    "global": {
      "const": {
        "AcquisitionMatrix": [
          68,
          0,
          0,
          68
        ],
        "AngioFlag": "N",
        "BitsAllocated": 16,
        "BitsStored": 12,
        "Columns": 408,
        "EchoNumbers": 1,
        "EchoTime": 23.0,
        "EchoTrainLength": 1,
        "FlipAngle": 76.0,
        "HighBit": 11,
        "ImageOrientationPatient": [
          1.0,
          0.0,
          0.0,
          0.0,
          0.99813479839876,
          -0.0610485399126
        ],
        "ImagePositionPatient": [
          -611.32203388214,
          -636.43642707048,
          5.2986113337671
        ],
        "ImageType": [
          "ORIGINAL",
          "PRIMARY",
          "M",
          "ND",
          "MOSAIC"
        ],
        "ImagedNucleus": "1H",
        "ImagingFrequency": 123.218583,
        "InPlanePhaseEncodingDirection": "COL",
        "MRAcquisitionType": "2D",
        "MagneticFieldStrength": 3.0,
        "Manufacturer": "SIEMENS",
        "ManufacturerModelName": "TrioTim",
        "Modality": "MR",
        "NumberOfAverages": 1.0,
        "NumberOfPhaseEncodingSteps": 68,
        "PercentPhaseFieldOfView": 100.0,
        "PercentSampling": 100.0,
        "PerformedProcedureStepStartTime": "112512.640000",
        "PhotometricInterpretation": "MONOCHROME2",
        "PixelBandwidth": 2451.0,
        "PixelRepresentation": 0,
        "PixelSpacing": [
          3.0,
          3.0
        ],
        "ProtocolName": "ep2d_bold_RestEPI_4",
        "RepetitionTime": 2000.0,
        "Rows": 408,
        "SAR": 0.21645176775648,
        "SamplesPerPixel": 1,
        "ScanOptions": "FS",
        "ScanningSequence": "EP",
        "SequenceName": "*epfid2d1_68",
        "SequenceVariant": "SK",
        "SeriesDescription": "ep2d_bold_RestEPI_4",
        "SeriesNumber": 11,
        "SeriesTime": "124001.015000",
        "SliceLocation": -33.564786264452,
        "SliceThickness": 2.5,
        "SmallestImagePixelValue": 0,
        "SoftwareVersions": "syngo MR B19",
        "SpacingBetweenSlices": 2.999999989645,
        "SpecificCharacterSet": "ISO_IR 100",
        "StudyID": "1",
        "StudyTime": "112512.531000",
        "TransmitCoilName": "Body",
        "VariableFlipAngleFlag": "N",
        "WindowCenterWidthExplanation": "Algo1",
        "dBdt": 0.0
      },
      "slices": {}
    },
    "modality": "bold",
    "run_id": 4,
    "subject_id": "222",
    "task_id": "rest",
    "time": {
      "samples": {
        "AcquisitionNumber": [
          1,
          2,
          3,
          4,
          5,
          6,
          7,
          8,
          9,
          10,
          11,
          12,
          13,
          14,
          15,
          16,
          17,
          18,
          19,
          20,
          21,
          22,
          23,
          24,
          25,
          26,
          27,
          28,
          29,
          30,
          31,
          32,
          33,
          34,
          35,
          36,
          37,
          38,
          39,
          40,
          41,
          42,
          43,
          44,
          45,
          46,
          47,
          48,
          49,
          50,
          51,
          52,
          53,
          54,
          55,
          56,
          57,
          58,
          59,
          60,
          61,
          62,
          63,
          64,
          65,
          66,
          67,
          68,
          69,
          70,
          71,
          72,
          73,
          74,
          75,
          76,
          77,
          78,
          79,
          80,
          81,
          82,
          83,
          84,
          85,
          86,
          87,
          88,
          89,
          90,
          91,
          92,
          93,
          94,
          95,
          96,
          97,
          98,
          99,
          100,
          101,
          102,
          103,
          104,
          105,
          106,
          107,
          108,
          109,
          110,
          111,
          112,
          113,
          114,
          115,
          116,
          117,
          118,
          119,
          120,
          121,
          122,
          123,
          124,
          125,
          126,
          127,
          128,
          129,
          130,
          131,
          132,
          133,
          134,
          135,
          136,
          137,
          138,
          139,
          140,
          141,
          142,
          143,
          144,
          145,
          146,
          147,
          148,
          149,
          150,
          151,
          152,
          153,
          154,
          155,
          156,
          157,
          158,
          159,
          160,
          161,
          162,
          163,
          164,
          165,
          166,
          167,
          168,
          169,
          170,
          171,
          172,
          173,
          174,
          175,
          176,
          177,
          178,
          179,
          180,
          181,
          182,
          183,
          184,
          185,
          186,
          187,
          188,
          189,
          190,
          191,
          192,
          193,
          194,
          195,
          196,
          197,
          198,
          199,
          200,
          201,
          202,
          203,
          204,
          205,
          206,
          207,
          208,
          209,
          210,
          211,
          212,
          213,
          214,
          215,
          216,
          217,
          218,
          219,
          220,
          221,
          222,
          223,
          224,
          225,
          226,
          227,
          228,
          229,
          230,
          231,
          232,
          233,
          234,
          235,
          236,
          237,
          238,
          239,
          240
        ],
        "AcquisitionTime": [
          "123940.760000",
          "123942.767500",
          "123944.777500",
          "123946.785000",
          "123948.792500",
          "123950.800000",
          "123952.810000",
          "123954.817500",
          "123956.825000",
          "123958.832500",
          "124000.840000",
          "124002.850000",
          "124004.857500",
          "124006.865000",
          "124008.872500",
          "124010.880000",
          "124012.890000",
          "124014.897500",
          "124016.905000",
          "124018.912500",
          "124020.922500",
          "124022.930000",
          "124024.937500",
          "124026.945000",
          "124028.952500",
          "124030.962500",
          "124032.970000",
          "124034.977500",
          "124036.985000",
          "124038.992500",
          "124041.002500",
          "124043.010000",
          "124045.017500",
          "124047.025000",
          "124049.032500",
          "124051.042500",
          "124053.050000",
          "124055.057500",
          "124057.065000",
          "124059.075000",
          "124101.082500",
          "124103.090000",
          "124105.097500",
          "124107.105000",
          "124109.115000",
          "124111.122500",
          "124113.130000",
          "124115.137500",
          "124117.145000",
          "124119.155000",
          "124121.162500",
          "124123.170000",
          "124125.177500",
          "124127.187500",
          "124129.195000",
          "124131.202500",
          "124133.210000",
          "124135.217500",
          "124137.227500",
          "124139.235000",
          "124141.242500",
          "124143.250000",
          "124145.257500",
          "124147.267500",
          "124149.275000",
          "124151.282500",
          "124153.290000",
          "124155.300000",
          "124157.307500",
          "124159.315000",
          "124201.322500",
          "124203.330000",
          "124205.340000",
          "124207.347500",
          "124209.355000",
          "124211.362500",
          "124213.370000",
          "124215.380000",
          "124217.387500",
          "124219.395000",
          "124221.402500",
          "124223.410000",
          "124225.420000",
          "124227.427500",
          "124229.435000",
          "124231.442500",
          "124233.452500",
          "124235.460000",
          "124237.467500",
          "124239.475000",
          "124241.482500",
          "124243.492500",
          "124245.500000",
          "124247.507500",
          "124249.515000",
          "124251.522500",
          "124253.532500",
          "124255.540000",
          "124257.547500",
          "124259.555000",
          "124301.565000",
          "124303.572500",
          "124305.580000",
          "124307.587500",
          "124309.595000",
          "124311.605000",
          "124313.612500",
          "124315.620000",
          "124317.627500",
          "124319.635000",
          "124321.645000",
          "124323.652500",
          "124325.660000",
          "124327.667500",
          "124329.677500",
          "124331.685000",
          "124333.692500",
          "124335.700000",
          "124337.707500",
          "124339.717500",
          "124341.725000",
          "124343.732500",
          "124345.740000",
          "124347.747500",
          "124349.757500",
          "124351.765000",
          "124353.772500",
          "124355.780000",
          "124357.787500",
          "124359.797500",
          "124401.805000",
          "124403.812500",
          "124405.820000",
          "124407.830000",
          "124409.837500",
          "124411.845000",
          "124413.852500",
          "124415.860000",
          "124417.870000",
          "124419.877500",
          "124421.885000",
          "124423.892500",
          "124425.900000",
          "124427.910000",
          "124429.917500",
          "124431.925000",
          "124433.932500",
          "124435.942500",
          "124437.950000",
          "124439.957500",
          "124441.965000",
          "124443.972500",
          "124445.982500",
          "124447.990000",
          "124449.997500",
          "124452.005000",
          "124454.012500",
          "124456.022500",
          "124458.030000",
          "124500.037500",
          "124502.045000",
          "124504.055000",
          "124506.062500",
          "124508.070000",
          "124510.077500",
          "124512.085000",
          "124514.095000",
          "124516.102500",
          "124518.110000",
          "124520.117500",
          "124522.125000",
          "124524.135000",
          "124526.142500",
          "124528.150000",
          "124530.157500",
          "124532.167500",
          "124534.175000",
          "124536.182500",
          "124538.190000",
          "124540.197500",
          "124542.207500",
          "124544.215000",
          "124546.222500",
          "124548.230000",
          "124550.237500",
          "124552.247500",
          "124554.255000",
          "124556.262500",
          "124558.270000",
          "124600.277500",
          "124602.287500",
          "124604.295000",
          "124606.302500",
          "124608.310000",
          "124610.320000",
          "124612.327500",
          "124614.335000",
          "124616.342500",
          "124618.350000",
          "124620.360000",
          "124622.367500",
          "124624.375000",
          "124626.382500",
          "124628.390000",
          "124630.400000",
          "124632.407500",
          "124634.415000",
          "124636.422500",
          "124638.432500",
          "124640.440000",
          "124642.447500",
          "124644.455000",
          "124646.462500",
          "124648.472500",
          "124650.480000",
          "124652.487500",
          "124654.495000",
          "124656.502500",
          "124658.512500",
          "124700.520000",
          "124702.527500",
          "124704.535000",
          "124706.545000",
          "124708.552500",
          "124710.560000",
          "124712.567500",
          "124714.575000",
          "124716.585000",
          "124718.592500",
          "124720.600000",
          "124722.607500",
          "124724.615000",
          "124726.625000",
          "124728.632500",
          "124730.640000",
          "124732.647500",
          "124734.655000",
          "124736.665000",
          "124738.672500",
          "124740.680000"
        ],
        "ContentTime": [
          "124001.015000",
          "124001.015000",
          "124001.031000",
          "124001.031000",
          "124001.031000",
          "124001.031000",
          "124001.031000",
          "124001.031000",
          "124001.031000",
          "124001.031000",
          "124041.000000",
          "124041.015000",
          "124041.015000",
          "124041.015000",
          "124041.015000",
          "124041.015000",
          "124041.015000",
          "124041.015000",
          "124041.031000",
          "124041.031000",
          "124041.031000",
          "124041.031000",
          "124041.031000",
          "124041.031000",
          "124041.031000",
          "124041.046000",
          "124041.046000",
          "124041.046000",
          "124041.046000",
          "124041.046000",
          "124121.000000",
          "124121.015000",
          "124121.015000",
          "124121.015000",
          "124121.015000",
          "124121.015000",
          "124121.015000",
          "124121.015000",
          "124121.031000",
          "124121.031000",
          "124121.031000",
          "124121.031000",
          "124121.031000",
          "124121.031000",
          "124121.031000",
          "124121.046000",
          "124121.046000",
          "124121.046000",
          "124121.046000",
          "124121.046000",
          "124201.000000",
          "124201.015000",
          "124201.015000",
          "124201.015000",
          "124201.015000",
          "124201.015000",
          "124201.015000",
          "124201.015000",
          "124201.031000",
          "124201.031000",
          "124201.031000",
          "124201.031000",
          "124201.031000",
          "124201.031000",
          "124201.031000",
          "124201.046000",
          "124201.046000",
          "124201.046000",
          "124201.046000",
          "124201.046000",
          "124241.000000",
          "124241.015000",
          "124241.015000",
          "124241.015000",
          "124241.015000",
          "124241.015000",
          "124241.015000",
          "124241.015000",
          "124241.031000",
          "124241.031000",
          "124241.031000",
          "124241.031000",
          "124241.031000",
          "124241.031000",
          "124241.031000",
          "124241.046000",
          "124241.046000",
          "124241.046000",
          "124241.046000",
          "124241.046000",
          "124321.000000",
          "124321.015000",
          "124321.015000",
          "124321.015000",
          "124321.015000",
          "124321.015000",
          "124321.015000",
          "124321.015000",
          "124321.031000",
          "124321.031000",
          "124321.031000",
          "124321.031000",
          "124321.031000",
          "124321.031000",
          "124321.046000",
          "124321.046000",
          "124321.046000",
          "124321.046000",
          "124321.046000",
          "124321.046000",
          "124401.000000",
          "124401.015000",
          "124401.015000",
          "124401.015000",
          "124401.015000",
          "124401.015000",
          "124401.015000",
          "124401.015000",
          "124401.031000",
          "124401.031000",
          "124401.031000",
          "124401.031000",
          "124401.031000",
          "124401.031000",
          "124401.031000",
          "124401.046000",
          "124401.046000",
          "124401.046000",
          "124401.046000",
          "124401.046000",
          "124441.000000",
          "124441.015000",
          "124441.015000",
          "124441.015000",
          "124441.015000",
          "124441.015000",
          "124441.015000",
          "124441.015000",
          "124441.031000",
          "124441.031000",
          "124441.031000",
          "124441.031000",
          "124441.031000",
          "124441.031000",
          "124441.031000",
          "124441.031000",
          "124441.046000",
          "124441.046000",
          "124441.046000",
          "124441.046000",
          "124521.000000",
          "124521.015000",
          "124521.015000",
          "124521.015000",
          "124521.015000",
          "124521.015000",
          "124521.015000",
          "124521.015000",
          "124521.031000",
          "124521.031000",
          "124521.031000",
          "124521.031000",
          "124521.031000",
          "124521.031000",
          "124521.031000",
          "124521.046000",
          "124521.046000",
          "124521.046000",
          "124521.046000",
          "124521.046000",
          "124601.000000",
          "124601.015000",
          "124601.015000",
          "124601.015000",
          "124601.015000",
          "124601.015000",
          "124601.015000",
          "124601.015000",
          "124601.031000",
          "124601.031000",
          "124601.031000",
          "124601.031000",
          "124601.031000",
          "124601.031000",
          "124601.031000",
          "124601.046000",
          "124601.046000",
          "124601.046000",
          "124601.046000",
          "124601.046000",
          "124641.000000",
          "124641.015000",
          "124641.015000",
          "124641.015000",
          "124641.015000",
          "124641.015000",
          "124641.015000",
          "124641.031000",
          "124641.031000",
          "124641.031000",
          "124641.031000",
          "124641.031000",
          "124641.031000",
          "124641.031000",
          "124641.046000",
          "124641.046000",
          "124641.046000",
          "124641.046000",
          "124641.046000",
          "124641.046000",
          "124721.000000",
          "124721.015000",
          "124721.015000",
          "124721.015000",
          "124721.015000",
          "124721.015000",
          "124721.015000",
          "124721.015000",
          "124721.031000",
          "124721.031000",
          "124721.031000",
          "124721.031000",
          "124721.031000",
          "124721.031000",
          "124721.031000",
          "124721.031000",
          "124721.046000",
          "124721.046000",
          "124721.046000",
          "124721.046000",
          "124740.109000",
          "124740.109000",
          "124740.109000",
          "124740.109000",
          "124740.125000",
          "124740.125000",
          "124740.125000",
          "124740.125000",
          "124740.125000",
          "124740.125000"
        ],
        "InstanceCreationTime": [
          "124001.015000",
          "124001.015000",
          "124001.031000",
          "124001.031000",
          "124001.031000",
          "124001.031000",
          "124001.031000",
          "124001.031000",
          "124001.031000",
          "124001.031000",
          "124041.000000",
          "124041.015000",
          "124041.015000",
          "124041.015000",
          "124041.015000",
          "124041.015000",
          "124041.015000",
          "124041.015000",
          "124041.031000",
          "124041.031000",
          "124041.031000",
          "124041.031000",
          "124041.031000",
          "124041.031000",
          "124041.031000",
          "124041.046000",
          "124041.046000",
          "124041.046000",
          "124041.046000",
          "124041.046000",
          "124121.000000",
          "124121.015000",
          "124121.015000",
          "124121.015000",
          "124121.015000",
          "124121.015000",
          "124121.015000",
          "124121.015000",
          "124121.031000",
          "124121.031000",
          "124121.031000",
          "124121.031000",
          "124121.031000",
          "124121.031000",
          "124121.031000",
          "124121.046000",
          "124121.046000",
          "124121.046000",
          "124121.046000",
          "124121.046000",
          "124201.000000",
          "124201.015000",
          "124201.015000",
          "124201.015000",
          "124201.015000",
          "124201.015000",
          "124201.015000",
          "124201.015000",
          "124201.031000",
          "124201.031000",
          "124201.031000",
          "124201.031000",
          "124201.031000",
          "124201.031000",
          "124201.031000",
          "124201.046000",
          "124201.046000",
          "124201.046000",
          "124201.046000",
          "124201.046000",
          "124241.000000",
          "124241.015000",
          "124241.015000",
          "124241.015000",
          "124241.015000",
          "124241.015000",
          "124241.015000",
          "124241.015000",
          "124241.031000",
          "124241.031000",
          "124241.031000",
          "124241.031000",
          "124241.031000",
          "124241.031000",
          "124241.031000",
          "124241.046000",
          "124241.046000",
          "124241.046000",
          "124241.046000",
          "124241.046000",
          "124321.000000",
          "124321.015000",
          "124321.015000",
          "124321.015000",
          "124321.015000",
          "124321.015000",
          "124321.015000",
          "124321.015000",
          "124321.031000",
          "124321.031000",
          "124321.031000",
          "124321.031000",
          "124321.031000",
          "124321.031000",
          "124321.046000",
          "124321.046000",
          "124321.046000",
          "124321.046000",
          "124321.046000",
          "124321.046000",
          "124401.000000",
          "124401.015000",
          "124401.015000",
          "124401.015000",
          "124401.015000",
          "124401.015000",
          "124401.015000",
          "124401.015000",
          "124401.031000",
          "124401.031000",
          "124401.031000",
          "124401.031000",
          "124401.031000",
          "124401.031000",
          "124401.031000",
          "124401.046000",
          "124401.046000",
          "124401.046000",
          "124401.046000",
          "124401.046000",
          "124441.000000",
          "124441.015000",
          "124441.015000",
          "124441.015000",
          "124441.015000",
          "124441.015000",
          "124441.015000",
          "124441.015000",
          "124441.031000",
          "124441.031000",
          "124441.031000",
          "124441.031000",
          "124441.031000",
          "124441.031000",
          "124441.031000",
          "124441.031000",
          "124441.046000",
          "124441.046000",
          "124441.046000",
          "124441.046000",
          "124521.000000",
          "124521.015000",
          "124521.015000",
          "124521.015000",
          "124521.015000",
          "124521.015000",
          "124521.015000",
          "124521.015000",
          "124521.031000",
          "124521.031000",
          "124521.031000",
          "124521.031000",
          "124521.031000",
          "124521.031000",
          "124521.031000",
          "124521.046000",
          "124521.046000",
          "124521.046000",
          "124521.046000",
          "124521.046000",
          "124601.000000",
          "124601.015000",
          "124601.015000",
          "124601.015000",
          "124601.015000",
          "124601.015000",
          "124601.015000",
          "124601.015000",
          "124601.031000",
          "124601.031000",
          "124601.031000",
          "124601.031000",
          "124601.031000",
          "124601.031000",
          "124601.031000",
          "124601.046000",
          "124601.046000",
          "124601.046000",
          "124601.046000",
          "124601.046000",
          "124641.000000",
          "124641.015000",
          "124641.015000",
          "124641.015000",
          "124641.015000",
          "124641.015000",
          "124641.015000",
          "124641.031000",
          "124641.031000",
          "124641.031000",
          "124641.031000",
          "124641.031000",
          "124641.031000",
          "124641.031000",
          "124641.046000",
          "124641.046000",
          "124641.046000",
          "124641.046000",
          "124641.046000",
          "124641.046000",
          "124721.000000",
          "124721.015000",
          "124721.015000",
          "124721.015000",
          "124721.015000",
          "124721.015000",
          "124721.015000",
          "124721.015000",
          "124721.031000",
          "124721.031000",
          "124721.031000",
          "124721.031000",
          "124721.031000",
          "124721.031000",
          "124721.031000",
          "124721.031000",
          "124721.046000",
          "124721.046000",
          "124721.046000",
          "124721.046000",
          "124740.109000",
          "124740.109000",
          "124740.109000",
          "124740.109000",
          "124740.125000",
          "124740.125000",
          "124740.125000",
          "124740.125000",
          "124740.125000",
          "124740.125000"
        ],
        "InstanceNumber": [
          1,
          2,
          3,
          4,
          5,
          6,
          7,
          8,
          9,
          10,
          11,
          12,
          13,
          14,
          15,
          16,
          17,
          18,
          19,
          20,
          21,
          22,
          23,
          24,
          25,
          26,
          27,
          28,
          29,
          30,
          31,
          32,
          33,
          34,
          35,
          36,
          37,
          38,
          39,
          40,
          41,
          42,
          43,
          44,
          45,
          46,
          47,
          48,
          49,
          50,
          51,
          52,
          53,
          54,
          55,
          56,
          57,
          58,
