{
    "AcquisitionMatrixPE": 68, 
    "AcquisitionNumber": 1, 
    "AcquisitionTime": "11:32:33.107500", 
    "BaseResolution": 68, 
    "CoilString": "C:HEA;HEP", 
    "ConversionSoftware": "dcm2niix", 
    "ConversionSoftwareVersion": "v1.0.20190902", 
    "DeviceSerialNumber": "35450", 
    "DwellTime": 2.82e-05, 
    "EchoNumber": 2, 
    "EchoTime": 0.00765, 
    "EchoTime1": 0.00519, 
    "EchoTime2": 0.00765, 
    "FlipAngle": 60, 
    "ImageOrientationPatientDICOM": [
        1, 
        0, 
        0, 
        0, 
        0.988228, 
        -0.152986
    ], 
    "ImageType": [
        "ORIGINAL", 
        "PRIMARY", 
        "P", 
        "ND"
    ], 
    "ImagingFrequency": 123.218, 
    "InPlanePhaseEncodingDirectionDICOM": "COL", 
    "InstitutionAddress": "Univeristy_Ave._197_Newark_North_East_US_07102-1814", 
    "InstitutionName": "RUBIC", 
    "InstitutionalDepartmentName": "Department", 
    "IntendedFor": [
        "func/sub-236_task-cardgame_run-02_bold.nii.gz", 
        "func/sub-236_task-cardgame_run-01_bold.nii.gz", 
        "func/sub-236_task-rest_run-01_bold.nii.gz", 
        "func/sub-236_task-rest_run-02_bold.nii.gz", 
        "func/sub-236_task-rest_run-04_bold.nii.gz", 
        "func/sub-236_task-cardgame_run-03_bold.nii.gz", 
        "func/sub-236_task-rest_run-03_bold.nii.gz"
    ], 
    "MRAcquisitionType": "2D", 
    "MagneticFieldStrength": 3, 
    "Manufacturer": "Siemens", 
    "ManufacturersModelName": "TrioTim", 
    "Modality": "MR", 
    "PartialFourier": 1, 
    "PatientPosition": "HFS", 
    "PercentPhaseFOV": 100, 
    "PhaseEncodingDirection": "j-", 
    "PhaseEncodingSteps": 68, 
    "PhaseResolution": 1, 
    "PixelBandwidth": 261, 
    "ProcedureStepDescription": "Krekelberg_David", 
    "ProtocolName": "gre_field_mapping", 
    "PulseSequenceDetails": "%SiemensSeq%_gre_field_mapping", 
    "ReceiveCoilName": "HeadMatrix", 
    "ReconMatrixPE": 68, 
    "RepetitionTime": 0.402, 
    "SAR": 0.360107, 
    "ScanningSequence": "GR", 
    "SequenceName": "_fm2d2r", 
    "SequenceVariant": "SP", 
    "SeriesDescription": "gre_field_mapping", 
    "SeriesNumber": 4, 
    "ShimSetting": [
        1963, 
        -666, 
        -7514, 
        631, 
        37, 
        -44, 
        -413, 
        -11
    ], 
    "SliceThickness": 2.5, 
    "SliceTiming": [
        0.20312, 
        0, 
        0.21094, 
        0.00781, 
        0.22656, 
        0.02344, 
        0.23438, 
        0.03125, 
        0.25, 
        0.04688, 
        0.25781, 
        0.05469, 
        0.26562, 
        0.0625, 
        0.28125, 
        0.07812, 
        0.28906, 
        0.08594, 
        0.30469, 
        0.10156, 
        0.3125, 
        0.10938, 
        0.32031, 
        0.125, 
        0.33594, 
        0.13281, 
        0.34375, 
        0.14844, 
        0.35938, 
        0.15625, 
        0.36719, 
        0.17188, 
        0.38281, 
        0.17969, 
        0.39062, 
        0.1875
    ], 
    "SoftwareVersions": "syngo_MR_B19", 
    "SpacingBetweenSlices": 3, 
    "StationName": "MRC35450", 
    "TxRefAmp": 478.846, 
    "dcmmeta_affine": [
        [
            -3.0, 
            0.0, 
            0.0, 
            102.0
        ], 
        [
            0.0, 
            2.9646852016448975, 
            -0.4589557647705078, 
            -65.39613342285156
        ], 
        [
            0.0, 
            0.4589575231075287, 
            2.9646835327148438, 
            -51.43431091308594
        ], 
        [
            0.0, 
            0.0, 
            0.0, 
            1.0
        ]
    ], 
    "dcmmeta_reorient_transform": [
        [
            0.0, 
            -1.0, 
            0.0, 
            67.0
        ], 
        [
            1.0, 
            0.0, 
            0.0, 
            0.0
        ], 
        [
            0.0, 
            0.0, 
            -1.0, 
            35.0
        ], 
        [
            0.0, 
            0.0, 
            0.0, 
            1.0
        ]
    ], 
    "dcmmeta_shape": [
        68, 
        68, 
        36
    ], 
    "dcmmeta_slice_dim": 2, 
    "dcmmeta_version": 0.6, 
    "global": {
        "const": {
            "AcquisitionMatrix": [
                68, 
                0, 
                0, 
                68
            ], 
            "AcquisitionNumber": 1, 
            "AngioFlag": "N", 
            "BitsAllocated": 16, 
            "BitsStored": 12, 
            "Columns": 68, 
            "EchoNumbers": 2, 
            "EchoTime": 7.65, 
            "EchoTrainLength": 1, 
            "FlipAngle": 60.0, 
            "HighBit": 11, 
            "ImageOrientationPatient": [
                1.0, 
                0.0, 
                0.0, 
                0.0, 
                0.9882283809914, 
                -0.1529858392241
            ], 
            "ImageType": [
                "ORIGINAL", 
                "PRIMARY", 
                "P", 
                "ND"
            ], 
            "ImagedNucleus": "1H", 
            "ImagingFrequency": 123.218354, 
            "InPlanePhaseEncodingDirection": "COL", 
            "MRAcquisitionType": "2D", 
            "MagneticFieldStrength": 3.0, 
            "Manufacturer": "SIEMENS", 
            "ManufacturerModelName": "TrioTim", 
            "Modality": "MR", 
            "NumberOfAverages": 1.0, 
            "NumberOfPhaseEncodingSteps": 68, 
            "PercentPhaseFieldOfView": 100.0, 
            "PercentSampling": 100.0, 
            "PerformedProcedureStepStartTime": "112056.812000", 
            "PhotometricInterpretation": "MONOCHROME2", 
            "PixelBandwidth": 261.0, 
            "PixelRepresentation": 0, 
            "PixelSpacing": [
                3.0, 
                3.0
            ], 
            "ProtocolName": "gre_field_mapping", 
            "RepetitionTime": 402.0, 
            "RescaleIntercept": -4096.0, 
            "RescaleSlope": 2.0, 
            "RescaleType": "US", 
            "Rows": 68, 
            "SAR": 0.36010729699791, 
            "SamplesPerPixel": 1, 
            "ScanningSequence": "GR", 
            "SequenceName": "*fm2d2r", 
            "SequenceVariant": "SP", 
            "SeriesDescription": "gre_field_mapping", 
            "SeriesNumber": 4, 
            "SeriesTime": "113333.640000", 
            "SliceThickness": 2.5, 
            "SoftwareVersions": "syngo MR B19", 
            "SpacingBetweenSlices": 3.0, 
            "SpecificCharacterSet": "ISO_IR 100", 
            "StudyID": "1", 
            "StudyTime": "112056.703000", 
            "TransmitCoilName": "Body", 
            "VariableFlipAngleFlag": "N", 
            "WindowCenterWidthExplanation": "Algo1", 
            "dBdt": 0.0
        }, 
        "slices": {
            "AcquisitionTime": [
                "113233.107500", 
                "113232.905000", 
                "113233.120000", 
                "113232.917500", 
                "113233.130000", 
                "113232.927500", 
                "113233.140000", 
                "113232.940000", 
                "113233.152500", 
                "113232.950000", 
                "113233.162500", 
                "113232.962500", 
                "113233.175000", 
                "113232.972500", 
                "113233.185000", 
                "113232.985000", 
                "113233.197500", 
                "113232.995000", 
                "113233.207500", 
                "113233.007500", 
                "113233.220000", 
                "113233.017500", 
                "113233.230000", 
                "113233.030000", 
                "113233.242500", 
                "113233.040000", 
                "113233.252500", 
                "113233.052500", 
                "113233.265000", 
                "113233.062500", 
                "113233.275000", 
                "113233.075000", 
                "113233.287500", 
                "113233.085000", 
                "113233.297500", 
                "113233.097500"
            ], 
            "ContentTime": [
                "113333.671000", 
                "113333.640000", 
                "113333.671000", 
                "113333.640000", 
                "113333.671000", 
                "113333.640000", 
                "113333.687000", 
                "113333.640000", 
                "113333.687000", 
                "113333.640000", 
                "113333.687000", 
                "113333.656000", 
                "113333.687000", 
                "113333.656000", 
                "113333.687000", 
                "113333.656000", 
                "113333.687000", 
                "113333.656000", 
                "113333.687000", 
                "113333.656000", 
                "113333.687000", 
                "113333.656000", 
                "113333.687000", 
                "113333.656000", 
                "113333.703000", 
                "113333.656000", 
                "113333.703000", 
                "113333.671000", 
                "113333.703000", 
                "113333.671000", 
                "113333.703000", 
                "113333.671000", 
                "113333.703000", 
                "113333.671000", 
                "113333.718000", 
                "113333.671000"
            ], 
            "CsaImage.ICE_Dims": [
                "X_2_1_1_1_1_1_19_1_1_1_1_19", 
                "X_2_1_1_1_1_1_1_1_1_2_1_19", 
                "X_2_1_1_1_1_1_20_1_1_3_1_19", 
                "X_2_1_1_1_1_1_2_1_1_4_1_19", 
                "X_2_1_1_1_1_1_21_1_1_5_1_19", 
                "X_2_1_1_1_1_1_3_1_1_6_1_19", 
                "X_2_1_1_1_1_1_22_1_1_7_1_19", 
                "X_2_1_1_1_1_1_4_1_1_8_1_19", 
                "X_2_1_1_1_1_1_23_1_1_9_1_19", 
                "X_2_1_1_1_1_1_5_1_1_10_1_19", 
                "X_2_1_1_1_1_1_24_1_1_11_1_19", 
                "X_2_1_1_1_1_1_6_1_1_12_1_19", 
                "X_2_1_1_1_1_1_25_1_1_13_1_19", 
                "X_2_1_1_1_1_1_7_1_1_14_1_19", 
                "X_2_1_1_1_1_1_26_1_1_15_1_19", 
                "X_2_1_1_1_1_1_8_1_1_16_1_19", 
                "X_2_1_1_1_1_1_27_1_1_17_1_19", 
                "X_2_1_1_1_1_1_9_1_1_18_1_19", 
                "X_2_1_1_1_1_1_28_1_1_19_1_19", 
                "X_2_1_1_1_1_1_10_1_1_20_1_19", 
                "X_2_1_1_1_1_1_29_1_1_21_1_19", 
                "X_2_1_1_1_1_1_11_1_1_22_1_19", 
                "X_2_1_1_1_1_1_30_1_1_23_1_19", 
                "X_2_1_1_1_1_1_12_1_1_24_1_19", 
                "X_2_1_1_1_1_1_31_1_1_25_1_19", 
                "X_2_1_1_1_1_1_13_1_1_26_1_19", 
                "X_2_1_1_1_1_1_32_1_1_27_1_19", 
                "X_2_1_1_1_1_1_14_1_1_28_1_19", 
                "X_2_1_1_1_1_1_33_1_1_29_1_19", 
                "X_2_1_1_1_1_1_15_1_1_30_1_19", 
                "X_2_1_1_1_1_1_34_1_1_31_1_19", 
                "X_2_1_1_1_1_1_16_1_1_32_1_19", 
                "X_2_1_1_1_1_1_35_1_1_33_1_19", 
                "X_2_1_1_1_1_1_17_1_1_34_1_19", 
                "X_2_1_1_1_1_1_36_1_1_35_1_19", 
                "X_2_1_1_1_1_1_18_1_1_36_1_19"
            ], 
            "CsaImage.ProtocolSliceNumber": [
                0, 
                1, 
                2, 
                3, 
                4, 
                5, 
                6, 
                7, 
                8, 
                9, 
                10, 
                11, 
                12, 
                13, 
                14, 
                15, 
                16, 
                17, 
                18, 
                19, 
                20, 
                21, 
                22, 
                23, 
                24, 
                25, 
                26, 
                27, 
                28, 
                29, 
                30, 
                31, 
                32, 
                33, 
                34, 
                35
            ], 
            "CsaImage.SliceMeasurementDuration": [
                54085.0, 
                54085.0, 
                54082.5, 
                54085.0, 
                54085.0, 
                54085.0, 
                54085.0, 
                54085.0, 
                54085.0, 
                54085.0, 
                54085.0, 
                54082.5, 
                54085.0, 
                54085.0, 
                54085.0, 
                54082.5, 
                54085.0, 
                54085.0, 
                54085.0, 
                54082.5, 
                54085.0, 
                54085.0, 
                54085.0, 
                54082.5, 
                54085.0, 
                54085.0, 
                54085.0, 
                54082.5, 
                54085.0, 
                54085.0, 
                54085.0, 
                54082.5, 
                54082.5, 
                54085.0, 
                54085.0, 
                54082.5
            ], 
            "CsaImage.SlicePosition_PCS": [
                [
                    -102.0, 
                    -133.23783246, 
                    -20.68421317
                ], 
                [
                    -102.0, 
                    -132.77887479, 
                    -17.71952963
                ], 
                [
                    -102.0, 
                    -132.31991711, 
                    -14.75484419
                ], 
                [
                    -102.0, 
                    -131.86095944, 
                    -11.79015875
                ], 
                [
                    -102.0, 
                    -131.40200177, 
                    -8.82547331
                ], 
                [
                    -102.0, 
                    -130.9430441, 
                    -5.86078787
                ], 
                [
                    -102.0, 
                    -130.48408643, 
                    -2.89610243
                ], 
                [
                    -102.0, 
                    -130.02512875, 
                    0.06858205
                ], 
                [
                    -102.0, 
                    -129.56617108, 
                    3.03326749
                ], 
                [
                    -102.0, 
                    -129.10721341, 
                    5.99795293
                ], 
                [
                    -102.0, 
                    -128.64825574, 
                    8.9626379
                ], 
                [
                    -102.0, 
                    -128.18929807, 
                    11.92732286
                ], 
                [
                    -102.0, 
                    -127.7303423, 
                    14.89200806
                ], 
                [
                    -102.0, 
                    -127.27138463, 
                    17.85669326
                ], 
                [
                    -102.0, 
                    -126.81242696, 
                    20.82137823
                ], 
                [
                    -102.0, 
                    -126.35346928, 
                    23.78606367
                ], 
                [
                    -102.0, 
                    -125.89451161, 
                    26.75074911
                ], 
                [
                    -102.0, 
                    -125.43555394, 
                    29.71543359
                ], 
                [
                    -102.0, 
                    -124.97659627, 
                    32.68011903
                ], 
                [
                    -102.0, 
                    -124.5176386, 
                    35.64480447
                ], 
                [
                    -102.0, 
                    -124.05868092, 
                    38.60948991
                ], 
                [
                    -102.0, 
                    -123.59972325, 
                    41.57417344
                ], 
                [
                    -102.0, 
                    -123.14076558, 
                    44.53885888
                ], 
                [
                    -102.0, 
                    -122.68180981, 
                    47.50354432
                ], 
                [
                    -102.0, 
                    -122.22285214, 
                    50.46822976
                ], 
                [
                    -102.0, 
                    -121.76389447, 
                    53.4329133
                ], 
                [
                    -102.0, 
                    -121.3049368, 
                    56.39760064
                ], 
                [
                    -102.0, 
                    -120.84597913, 
                    59.36228418
                ], 
                [
                    -102.0, 
                    -120.38702145, 
                    62.32697152
                ], 
                [
                    -102.0, 
                    -119.92806378, 
                    65.29165506
                ], 
                [
                    -102.0, 
                    -119.46910611, 
                    68.25634241
                ], 
                [
                    -102.0, 
                    -119.01014844, 
                    71.22102594
                ], 
                [
                    -102.0, 
                    -118.55119077, 
                    74.18570947
                ], 
                [
                    -102.0, 
                    -118.09223309, 
                    77.15039682
                ], 
                [
                    -102.0, 
                    -117.63327542, 
                    80.11508417
                ], 
                [
                    -102.0, 
                    -117.17431966, 
                    83.0797677
                ]
            ], 
            "CsaImage.TimeAfterStart": [
                0.6075, 
                0.4075, 
                0.62, 
                0.4175, 
                0.63, 
                0.43, 
                0.6425, 
                0.44, 
                0.6525, 
                0.4525, 
                0.665, 
                0.4625, 
                0.675, 
                0.475, 
                0.6875, 
                0.485, 
                0.6975, 
                0.4975, 
                0.71, 
                0.5075, 
                0.72, 
                0.5175, 
                0.7325, 
                0.53, 
                0.7425, 
                0.54, 
                0.755, 
                0.5525, 
                0.765, 
                0.5625, 
                0.7775, 
                0.575, 
                0.7875, 
                0.585, 
                0.8, 
                0.5975
            ], 
            "ImagePositionPatient": [
                [
                    -102.0, 
                    -133.23783245878, 
                    -20.68421316745
                ], 
                [
                    -102.0, 
                    -132.77887478666, 
                    -17.719529634735
                ], 
                [
                    -102.0, 
                    -132.31991711454, 
                    -14.754844194672
                ], 
                [
                    -102.0, 
                    -131.86095944242, 
                    -11.790158754609
                ], 
                [
                    -102.0, 
                    -131.4020017703, 
                    -8.825473314545
                ], 
                [
                    -102.0, 
                    -130.94304409818, 
                    -5.8607878744816
                ], 
                [
                    -102.0, 
                    -130.48408642606, 
                    -2.8961024344181
                ], 
                [
                    -102.0, 
                    -130.02512875395, 
                    0.06858205197108
                ], 
                [
                    -102.0, 
                    -129.56617108183, 
                    3.0332674920346
                ], 
                [
                    -102.0, 
                    -129.10721340971, 
                    5.997952932098
                ], 
                [
                    -102.0, 
                    -128.64825573759, 
                    8.9626378953244
                ], 
                [
                    -102.0, 
                    -128.18929806547, 
                    11.927322858551
                ], 
                [
                    -102.0, 
                    -127.7303423007, 
                    14.892008060196
                ], 
                [
                    -102.0, 
                    -127.27138462858, 
                    17.85669326184
                ], 
                [
                    -102.0, 
                    -126.81242695646, 
                    20.821378225067
                ], 
                [
                    -102.0, 
                    -126.35346928434, 
                    23.78606366513
                ], 
                [
                    -102.0, 
                    -125.89451161222, 
                    26.750749105194
                ], 
                [
                    -102.0, 
                    -125.4355539401, 
                    29.715433591583
                ], 
                [
                    -102.0, 
                    -124.97659626798, 
                    32.680119031646
                ], 
                [
                    -102.0, 
                    -124.51763859586, 
                    35.64480447171
                ], 
                [
                    -102.0, 
                    -124.05868092374, 
                    38.609489911773
                ], 
                [
                    -102.0, 
                    -123.59972325163, 
                    41.574173444488
                ], 
                [
                    -102.0, 
                    -123.14076557951, 
                    44.538858884552
                ], 
                [
                    -102.0, 
                    -122.68180981474, 
                    47.503544324615
                ], 
                [
                    -102.0, 
                    -122.22285214262, 
                    50.468229764679
                ], 
                [
                    -102.0, 
                    -121.7638944705, 
                    53.432913297393
                ], 
                [
                    -102.0, 
                    -121.30493679838, 
                    56.397600644806
                ], 
                [
                    -102.0, 
                    -120.84597912626, 
                    59.36228417752
                ], 
                [
                    -102.0, 
                    -120.38702145414, 
                    62.326971524933
                ], 
                [
                    -102.0, 
                    -119.92806378202, 
                    65.291655057647
                ], 
                [
                    -102.0, 
                    -119.4691061099, 
                    68.256342405059
                ], 
                [
                    -102.0, 
                    -119.01014843778, 
                    71.221025937774
                ], 
                [
                    -102.0, 
                    -118.55119076566, 
                    74.185709470489
                ], 
                [
                    -102.0, 
                    -118.09223309354, 
                    77.150396817901
                ], 
                [
                    -102.0, 
                    -117.63327542143, 
                    80.115084165313
                ], 
                [
                    -102.0, 
                    -117.17431965666, 
                    83.079767698028
                ]
            ], 
            "InstanceCreationTime": [
                "113333.671000", 
                "113333.640000", 
                "113333.671000", 
                "113333.640000", 
                "113333.671000", 
                "113333.640000", 
                "113333.687000", 
                "113333.640000", 
                "113333.687000", 
                "113333.640000", 
                "113333.687000", 
                "113333.656000", 
                "113333.687000", 
                "113333.656000", 
                "113333.687000", 
                "113333.656000", 
                "113333.687000", 
                "113333.656000", 
                "113333.687000", 
                "113333.656000", 
                "113333.687000", 
                "113333.656000", 
                "113333.687000", 
                "113333.656000", 
                "113333.703000", 
                "113333.656000", 
                "113333.703000", 
                "113333.671000", 
                "113333.703000", 
                "113333.671000", 
                "113333.703000", 
                "113333.671000", 
                "113333.703000", 
                "113333.671000", 
                "113333.718000", 
                "113333.671000"
            ], 
            "InstanceNumber": [
                1, 
                2, 
                3, 
                4, 
                5, 
                6, 
                7, 
                8, 
                9, 
                10, 
                11, 
                12, 
                13, 
                14, 
                15, 
                16, 
                17, 
                18, 
                19, 
                20, 
                21, 
                22, 
                23, 
                24, 
                25, 
                26, 
                27, 
                28, 
                29, 
                30, 
                31, 
                32, 
                33, 
                34, 
                35, 
                36
            ], 
            "LargestImagePixelValue": [
                4092, 
                4094, 
                4091, 
                4093, 
                4093, 
                4091, 
                4079, 
                4092, 
                4089, 
                4090, 
                4090, 
                4094, 
                4094, 
                4086, 
                4089, 
                4094, 
                4093, 
                4091, 
                4094, 
                4088, 
                4092, 
                4088, 
                4094, 
                4089, 
                4093, 
                4093, 
                4093, 
                4076, 
                4090, 
                4092, 
                4094, 
                4090, 
                4092, 
                4090, 
                4093, 
                4091
            ], 
            "SliceLocation": [
                -40.82422810566, 
                -37.824229673335, 
                -34.824229356115, 
                -31.824229038895, 
                -28.824228721675, 
                -25.824228404455, 
                -22.824228087234, 
                -19.824228712462, 
                -16.824228395242, 
                -13.824228078022, 
                -10.824228232026, 
                -7.8242283860293, 
                -4.8242285962184, 
                -1.8242285146102, 
                1.175771331386, 
                4.1757716486062, 
                7.1757719658264, 
                10.175771340599, 
                13.175771657819, 
                16.175771975039, 
                19.175772292259, 
                22.175770724583, 
                25.175771041804, 
                28.175771067226, 
                31.175771384447, 
                34.175769816771, 
                37.175772018887, 
                40.175770451211, 
                43.175772653328, 
                46.175771085652, 
                49.175773287768, 
                52.175771720092, 
                55.175770152416, 
                58.175772354533, 
                61.175774556649, 
                64.175772697176
            ], 
            "SmallestImagePixelValue": [
                7, 
                0, 
                0, 
                0, 
                15, 
                2, 
                1, 
                20, 
                9, 
                0, 
                11, 
                3, 
                3, 
                11, 
                7, 
                22, 
                0, 
                5, 
                22, 
                2, 
                12, 
                5, 
                2, 
                6, 
                0, 
                0, 
                0, 
                11, 
                0, 
                0, 
                2, 
                0, 
                7, 
                2, 
                0, 
                3
            ], 
            "WindowCenter": [
                -168.0, 
                -170.0, 
                -232.0, 
                -246.0, 
                -306.0, 
                -328.0, 
                -362.0, 
                -246.0, 
                -266.0, 
                -226.0, 
                -246.0, 
                -186.0, 
                -168.0, 
                -114.0, 
                -140.0, 
                -148.0, 
                -272.0, 
                -128.0, 
                -248.0, 
                -236.0, 
                -230.0, 
                -208.0, 
                -24.0, 
                -128.0, 
                -138.0, 
                -180.0, 
                -212.0, 
                -242.0, 
                -272.0, 
                -276.0, 
                -194.0, 
                -206.0, 
                -206.0, 
                -242.0, 
                -258.0, 
                -354.0
            ], 
            "WindowWidth": [
                6390.0, 
                6242.0, 
                6172.0, 
                6076.0, 
