{
    "AcquisitionMatrixPE": 68, 
    "AcquisitionNumber": 1, 
    "AcquisitionTime": "09:21:7.677500", 
    "BaseResolution": 68, 
    "CoilString": "C:HEA;HEP", 
    "ConversionSoftware": "dcm2niix", 
    "ConversionSoftwareVersion": "v1.0.20190902", 
    "DeviceSerialNumber": "35450", 
    "DwellTime": 2.82e-05, 
    "EchoNumber": 2, 
    "EchoTime": 0.00765, 
    "EchoTime1": 0.00519, 
    "EchoTime2": 0.00765, 
    "FlipAngle": 60, 
    "ImageOrientationPatientDICOM": [
        0.999818, 
        0.00206157, 
        0.0189735, 
        -6.85458e-09, 
        0.994149, 
        -0.108019
    ], 
    "ImageType": [
        "ORIGINAL", 
        "PRIMARY", 
        "P", 
        "ND"
    ], 
    "ImagingFrequency": 123.219, 
    "InPlanePhaseEncodingDirectionDICOM": "COL", 
    "InstitutionAddress": "Univeristy_Ave._197_Newark_North_East_US_07102-1814", 
    "InstitutionName": "RUBIC", 
    "InstitutionalDepartmentName": "Department", 
    "IntendedFor": [
        "func/sub-235_task-rest_run-02_bold.nii.gz", 
        "func/sub-235_task-rest_run-03_bold.nii.gz", 
        "func/sub-235_task-cardgame_run-02_bold.nii.gz", 
        "func/sub-235_task-rest_run-01_bold.nii.gz", 
        "func/sub-235_task-cardgame_run-01_bold.nii.gz", 
        "func/sub-235_task-rest_run-04_bold.nii.gz", 
        "func/sub-235_task-cardgame_run-03_bold.nii.gz"
    ], 
    "MRAcquisitionType": "2D", 
    "MagneticFieldStrength": 3, 
    "Manufacturer": "Siemens", 
    "ManufacturersModelName": "TrioTim", 
    "Modality": "MR", 
    "PartialFourier": 1, 
    "PatientPosition": "HFS", 
    "PercentPhaseFOV": 100, 
    "PhaseEncodingDirection": "j-", 
    "PhaseEncodingSteps": 68, 
    "PhaseResolution": 1, 
    "PixelBandwidth": 261, 
    "ProcedureStepDescription": "Krekelberg_David", 
    "ProtocolName": "gre_field_mapping", 
    "PulseSequenceDetails": "%SiemensSeq%_gre_field_mapping", 
    "ReceiveCoilName": "HeadMatrix", 
    "ReconMatrixPE": 68, 
    "RepetitionTime": 0.402, 
    "SAR": 0.26004, 
    "ScanningSequence": "GR", 
    "SequenceName": "_fm2d2r", 
    "SequenceVariant": "SP", 
    "SeriesDescription": "gre_field_mapping", 
    "SeriesNumber": 4, 
    "ShimSetting": [
        2059, 
        -624, 
        -8028, 
        906, 
        372, 
        170, 
        -1519, 
        -340
    ], 
    "SliceThickness": 2.5, 
    "SliceTiming": [
        0.20312, 
        0, 
        0.21094, 
        0.00781, 
        0.22656, 
        0.02344, 
        0.23438, 
        0.03125, 
        0.24219, 
        0.04688, 
        0.25781, 
        0.05469, 
        0.26562, 
        0.07031, 
        0.28125, 
        0.07812, 
        0.28906, 
        0.09375, 
        0.30469, 
        0.10156, 
        0.3125, 
        0.11719, 
        0.32812, 
        0.125, 
        0.33594, 
        0.13281, 
        0.35156, 
        0.14844, 
        0.35938, 
        0.15625, 
        0.36719, 
        0.17188, 
        0.38281, 
        0.17969, 
        0.39062, 
        0.1875
    ], 
    "SoftwareVersions": "syngo_MR_B19", 
    "SpacingBetweenSlices": 3, 
    "StationName": "MRC35450", 
    "TxRefAmp": 325.464, 
    "dcmmeta_affine": [
        [
            -2.999453544616699, 
            -2.0563749814073162e-08, 
            0.05725550651550293, 
            96.95831298828125
        ], 
        [
            -0.006184699945151806, 
            2.9824464321136475, 
            -0.32399749755859375, 
            -70.84558868408203
        ], 
        [
            0.05692044645547867, 
            0.32405710220336914, 
            2.981903076171875, 
            -65.49089050292969
        ], 
        [
            0.0, 
            0.0, 
            0.0, 
            1.0
        ]
    ], 
    "dcmmeta_reorient_transform": [
        [
            0.0, 
            -1.0, 
            0.0, 
            67.0
        ], 
        [
            1.0, 
            0.0, 
            0.0, 
            0.0
        ], 
        [
            0.0, 
            0.0, 
            -1.0, 
            35.0
        ], 
        [
            0.0, 
            0.0, 
            0.0, 
            1.0
        ]
    ], 
    "dcmmeta_shape": [
        68, 
        68, 
        36
    ], 
    "dcmmeta_slice_dim": 2, 
    "dcmmeta_version": 0.6, 
    "global": {
        "const": {
            "AcquisitionMatrix": [
                68, 
                0, 
                0, 
                68
            ], 
            "AcquisitionNumber": 1, 
            "AngioFlag": "N", 
            "BitsAllocated": 16, 
            "BitsStored": 12, 
            "Columns": 68, 
            "EchoNumbers": 2, 
            "EchoTime": 7.65, 
            "EchoTrainLength": 1, 
            "FlipAngle": 60.0, 
            "HighBit": 11, 
            "ImageOrientationPatient": [
                0.99981786186417, 
                0.00206156666259, 
                0.01897348255472, 
                -6.854583e-09, 
                0.99414882621586, 
                -0.108019032275
            ], 
            "ImageType": [
                "ORIGINAL", 
                "PRIMARY", 
                "P", 
                "ND"
            ], 
            "ImagedNucleus": "1H", 
            "ImagingFrequency": 123.218655, 
            "InPlanePhaseEncodingDirection": "COL", 
            "MRAcquisitionType": "2D", 
            "MagneticFieldStrength": 3.0, 
            "Manufacturer": "SIEMENS", 
            "ManufacturerModelName": "TrioTim", 
            "Modality": "MR", 
            "NumberOfAverages": 1.0, 
            "NumberOfPhaseEncodingSteps": 68, 
            "PercentPhaseFieldOfView": 100.0, 
            "PercentSampling": 100.0, 
            "PerformedProcedureStepStartTime": "090350.328000", 
            "PhotometricInterpretation": "MONOCHROME2", 
            "PixelBandwidth": 261.0, 
            "PixelRepresentation": 0, 
            "PixelSpacing": [
                3.0, 
                3.0
            ], 
            "ProtocolName": "gre_field_mapping", 
            "RepetitionTime": 402.0, 
            "RescaleIntercept": -4096.0, 
            "RescaleSlope": 2.0, 
            "RescaleType": "US", 
            "Rows": 68, 
            "SAR": 0.26004011927528, 
            "SamplesPerPixel": 1, 
            "ScanningSequence": "GR", 
            "SequenceName": "*fm2d2r", 
            "SequenceVariant": "SP", 
            "SeriesDescription": "gre_field_mapping", 
            "SeriesNumber": 4, 
            "SeriesTime": "092210.000000", 
            "SliceThickness": 2.5, 
            "SoftwareVersions": "syngo MR B19", 
            "SpacingBetweenSlices": 3.0, 
            "SpecificCharacterSet": "ISO_IR 100", 
            "StudyID": "1", 
            "StudyTime": "090350.218000", 
            "TransmitCoilName": "Body", 
            "VariableFlipAngleFlag": "N", 
            "WindowCenterWidthExplanation": "Algo1", 
            "dBdt": 0.0
        }, 
        "slices": {
            "AcquisitionTime": [
                "092107.677500", 
                "092107.477500", 
                "092107.690000", 
                "092107.487500", 
                "092107.700000", 
                "092107.500000", 
                "092107.712500", 
                "092107.510000", 
                "092107.722500", 
                "092107.522500", 
                "092107.735000", 
                "092107.532500", 
                "092107.745000", 
                "092107.545000", 
                "092107.757500", 
                "092107.555000", 
                "092107.767500", 
                "092107.567500", 
                "092107.780000", 
                "092107.577500", 
                "092107.790000", 
                "092107.590000", 
                "092107.802500", 
                "092107.600000", 
                "092107.812500", 
                "092107.612500", 
                "092107.825000", 
                "092107.622500", 
                "092107.835000", 
                "092107.632500", 
                "092107.847500", 
                "092107.645000", 
                "092107.857500", 
                "092107.655000", 
                "092107.870000", 
                "092107.667500"
            ], 
            "ContentTime": [
                "092210.031000", 
                "092210.000000", 
                "092210.031000", 
                "092210.000000", 
                "092210.031000", 
                "092210.000000", 
                "092210.046000", 
                "092210.000000", 
                "092210.046000", 
                "092210.000000", 
                "092210.046000", 
                "092210.000000", 
                "092210.046000", 
                "092210.015000", 
                "092210.046000", 
                "092210.015000", 
                "092210.046000", 
                "092210.015000", 
                "092210.046000", 
                "092210.015000", 
                "092210.046000", 
                "092210.015000", 
                "092210.046000", 
                "092210.015000", 
                "092210.062000", 
                "092210.015000", 
                "092210.062000", 
                "092210.031000", 
                "092210.062000", 
                "092210.031000", 
                "092210.062000", 
                "092210.031000", 
                "092210.062000", 
                "092210.031000", 
                "092210.062000", 
                "092210.031000"
            ], 
            "CsaImage.ICE_Dims": [
                "X_2_1_1_1_1_1_19_1_1_1_1_16", 
                "X_2_1_1_1_1_1_1_1_1_2_1_16", 
                "X_2_1_1_1_1_1_20_1_1_3_1_16", 
                "X_2_1_1_1_1_1_2_1_1_4_1_16", 
                "X_2_1_1_1_1_1_21_1_1_5_1_16", 
                "X_2_1_1_1_1_1_3_1_1_6_1_16", 
                "X_2_1_1_1_1_1_22_1_1_7_1_16", 
                "X_2_1_1_1_1_1_4_1_1_8_1_16", 
                "X_2_1_1_1_1_1_23_1_1_9_1_16", 
                "X_2_1_1_1_1_1_5_1_1_10_1_16", 
                "X_2_1_1_1_1_1_24_1_1_11_1_16", 
                "X_2_1_1_1_1_1_6_1_1_12_1_16", 
                "X_2_1_1_1_1_1_25_1_1_13_1_16", 
                "X_2_1_1_1_1_1_7_1_1_14_1_16", 
                "X_2_1_1_1_1_1_26_1_1_15_1_16", 
                "X_2_1_1_1_1_1_8_1_1_16_1_16", 
                "X_2_1_1_1_1_1_27_1_1_17_1_16", 
                "X_2_1_1_1_1_1_9_1_1_18_1_16", 
                "X_2_1_1_1_1_1_28_1_1_19_1_16", 
                "X_2_1_1_1_1_1_10_1_1_20_1_16", 
                "X_2_1_1_1_1_1_29_1_1_21_1_16", 
                "X_2_1_1_1_1_1_11_1_1_22_1_16", 
                "X_2_1_1_1_1_1_30_1_1_23_1_16", 
                "X_2_1_1_1_1_1_12_1_1_24_1_16", 
                "X_2_1_1_1_1_1_31_1_1_25_1_16", 
                "X_2_1_1_1_1_1_13_1_1_26_1_16", 
                "X_2_1_1_1_1_1_32_1_1_27_1_16", 
                "X_2_1_1_1_1_1_14_1_1_28_1_16", 
                "X_2_1_1_1_1_1_33_1_1_29_1_16", 
                "X_2_1_1_1_1_1_15_1_1_30_1_16", 
                "X_2_1_1_1_1_1_34_1_1_31_1_16", 
                "X_2_1_1_1_1_1_16_1_1_32_1_16", 
                "X_2_1_1_1_1_1_35_1_1_33_1_16", 
                "X_2_1_1_1_1_1_17_1_1_34_1_16", 
                "X_2_1_1_1_1_1_36_1_1_35_1_16", 
                "X_2_1_1_1_1_1_18_1_1_36_1_16"
            ], 
            "CsaImage.ProtocolSliceNumber": [
                0, 
                1, 
                2, 
                3, 
                4, 
                5, 
                6, 
                7, 
                8, 
                9, 
                10, 
                11, 
                12, 
                13, 
                14, 
                15, 
                16, 
                17, 
                18, 
                19, 
                20, 
                21, 
                22, 
                23, 
                24, 
                25, 
                26, 
                27, 
                28, 
                29, 
                30, 
                31, 
                32, 
                33, 
                34, 
                35
            ], 
            "CsaImage.SliceMeasurementDuration": [
                54085.0, 
                54082.5, 
                54085.0, 
                54085.0, 
                54085.0, 
                54082.5, 
                54085.0, 
                54085.0, 
                54085.0, 
                54082.5, 
                54085.0, 
                54085.0, 
                54085.0, 
                54082.5, 
                54085.0, 
                54085.0, 
                54085.0, 
                54082.5, 
                54082.5, 
                54085.0, 
                54085.0, 
                54082.5, 
                54082.5, 
                54085.0, 
                54085.0, 
                54082.5, 
                54082.5, 
                54085.0, 
                54085.0, 
                54085.0, 
                54082.5, 
                54085.0, 
                54085.0, 
                54085.0, 
                54082.5, 
                54085.0
            ], 
            "CsaImage.SlicePosition_PCS": [
                [
                    -96.95831273, 
                    -128.97834159, 
                    -43.77907497
                ], 
                [
                    -97.015568, 
                    -128.65434409, 
                    -40.79717189
                ], 
                [
                    -97.07282374, 
                    -128.33034659, 
                    -37.81526882
                ], 
                [
                    -97.13007901, 
                    -128.00634719, 
                    -34.83336574
                ], 
                [
                    -97.18733475, 
                    -127.68234969, 
                    -31.85146266
                ], 
                [
                    -97.24459002, 
                    -127.35835219, 
                    -28.86955959
                ], 
                [
                    -97.30184529, 
                    -127.03435279, 
                    -25.88765651
                ], 
                [
                    -97.35910104, 
                    -126.71035529, 
                    -22.90575153
                ], 
                [
                    -97.4163563, 
                    -126.38635779, 
                    -19.92384845
                ], 
                [
                    -97.47361205, 
                    -126.0623603, 
                    -16.94194537
                ], 
                [
                    -97.53086732, 
                    -125.73836089, 
                    -13.9600423
                ], 
                [
                    -97.58812259, 
                    -125.41436339, 
                    -10.97813922
                ], 
                [
                    -97.64537833, 
                    -125.0903659, 
                    -7.99623615
                ], 
                [
                    -97.7026336, 
                    -124.76636649, 
                    -5.01433307
                ], 
                [
                    -97.75988934, 
                    -124.44236899, 
                    -2.03242904
                ], 
                [
                    -97.81714461, 
                    -124.1183715, 
                    0.94947404
                ], 
                [
                    -97.87440036, 
                    -123.79437209, 
                    3.93137711
                ], 
                [
                    -97.93165562, 
                    -123.47037459, 
                    6.91328043
                ], 
                [
                    -97.98891113, 
                    -123.1463771, 
                    9.89518368
                ], 
                [
                    -98.04616664, 
                    -122.8223796, 
                    12.87708706
                ], 
                [
                    -98.10342191, 
                    -122.49838019, 
                    15.85899037
                ], 
                [
                    -98.16067741, 
                    -122.1743827, 
                    18.84089345
                ], 
                [
                    -98.21793292, 
                    -121.8503852, 
                    21.82279652
                ], 
                [
                    -98.27518842, 
                    -121.52638579, 
                    24.8046996
                ], 
                [
                    -98.33244393, 
                    -121.2023883, 
                    27.78660268
                ], 
                [
                    -98.38969944, 
                    -120.8783908, 
                    30.76850575
                ], 
                [
                    -98.44695494, 
                    -120.5543933, 
                    33.75040883
                ], 
                [
                    -98.50421021, 
                    -120.2303939, 
                    36.73231381
                ], 
                [
                    -98.56146572, 
                    -119.9063964, 
                    39.71421689
                ], 
                [
                    -98.61872123, 
                    -119.5823989, 
                    42.69611806
                ], 
                [
                    -98.67597673, 
                    -119.2583995, 
                    45.67802113
                ], 
                [
                    -98.73323224, 
                    -118.934402, 
                    48.65992421
                ], 
                [
                    -98.79048775, 
                    -118.6104045, 
                    51.6418311
                ], 
                [
                    -98.84774301, 
                    -118.2864051, 
                    54.62373418
                ], 
                [
                    -98.90499852, 
                    -117.9624076, 
                    57.60563725
                ], 
                [
                    -98.96225403, 
                    -117.6384101, 
                    60.58754033
                ]
            ], 
            "CsaImage.TimeAfterStart": [
                0.6075, 
                0.405, 
                0.6175, 
                0.4175, 
                0.63, 
                0.4275, 
                0.64, 
                0.44, 
                0.6525, 
                0.45, 
                0.6625, 
                0.46, 
                0.675, 
                0.4725, 
                0.685, 
                0.4825, 
                0.6975, 
                0.495, 
                0.7075, 
                0.505, 
                0.72, 
                0.5175, 
                0.73, 
                0.5275, 
                0.7425, 
                0.54, 
                0.7525, 
                0.55, 
                0.7625, 
                0.5625, 
                0.775, 
                0.5725, 
                0.785, 
                0.585, 
                0.7975, 
                0.595
            ], 
            "ImagePositionPatient": [
                [
                    -96.958312728617, 
                    -128.97834158911, 
                    -43.779074967347
                ], 
                [
                    -97.015567996714, 
                    -128.65434409155, 
                    -40.797171891175
                ], 
                [
                    -97.072823741648, 
                    -128.33034659399, 
                    -37.815268815003
                ], 
                [
                    -97.130079009745, 
                    -128.00634718908, 
                    -34.833365738831
                ], 
                [
                    -97.187334754679, 
                    -127.68234969152, 
                    -31.851462662659
                ], 
                [
                    -97.244590022776, 
                    -127.35835219396, 
                    -28.869559586487
                ], 
                [
                    -97.301845290873, 
                    -127.03435278906, 
                    -25.887656510315
                ], 
                [
                    -97.359101035807, 
                    -126.7103552915, 
                    -22.905751526795
                ], 
                [
                    -97.416356303904, 
                    -126.38635779394, 
                    -19.923848450623
                ], 
                [
                    -97.473612048838, 
                    -126.06236029638, 
                    -16.941945374451
                ], 
                [
                    -97.530867316935, 
                    -125.73836089147, 
                    -13.960042298279
                ], 
                [
                    -97.588122585032, 
                    -125.41436339391, 
                    -10.978139222107
                ], 
                [
                    -97.645378329966, 
                    -125.09036589636, 
                    -7.9962361459356
                ], 
                [
                    -97.702633598063, 
                    -124.76636649145, 
                    -5.0143330697637
                ], 
                [
                    -97.759889342997, 
                    -124.44236899389, 
                    -2.0324290399175
                ], 
                [
                    -97.817144611094, 
                    -124.11837149633, 
                    0.94947403625433
                ], 
                [
                    -97.874400356028, 
                    -123.79437209142, 
                    3.9313771124262
                ], 
                [
                    -97.931655624125, 
                    -123.47037459387, 
                    6.9132804270167
                ], 
                [
                    -97.98891113064, 
                    -123.14637709631, 
                    9.8951836820025
                ], 
                [
                    -98.046166637156, 
                    -122.82237959875, 
                    12.877087056198
                ], 
                [
                    -98.103421905253, 
                    -122.49838019384, 
                    15.858990370788
                ], 
                [
                    -98.160677411768, 
                    -122.17438269628, 
                    18.84089344696
                ], 
                [
                    -98.217932918284, 
                    -121.85038519872, 
                    21.822796523132
                ], 
                [
                    -98.275188424799, 
                    -121.52638579382, 
                    24.804699599304
                ], 
                [
                    -98.332443931315, 
                    -121.20238829626, 
                    27.786602675476
                ], 
                [
                    -98.38969943783, 
                    -120.8783907987, 
                    30.768505751647
                ], 
                [
                    -98.446954944346, 
                    -120.55439330114, 
                    33.750408827819
                ], 
                [
                    -98.504210212443, 
                    -120.23039389623, 
                    36.73231381134
                ], 
                [
                    -98.561465718958, 
                    -119.90639639868, 
                    39.714216887512
                ], 
                [
                    -98.618721225474, 
                    -119.58239890112, 
                    42.696118056335
                ], 
                [
                    -98.675976731989, 
                    -119.25839949621, 
                    45.678021132507
                ], 
                [
                    -98.733232238505, 
                    -118.93440199865, 
                    48.659924208679
                ], 
                [
                    -98.79048774502, 
                    -118.61040450109, 
                    51.641831099548
                ], 
                [
                    -98.847743013117, 
                    -118.28640509619, 
                    54.62373417572
                ], 
                [
                    -98.904998519633, 
                    -117.96240759863, 
                    57.605637251892
                ], 
                [
                    -98.962254026148, 
                    -117.63841010107, 
                    60.587540328063
                ]
            ], 
            "InstanceCreationTime": [
                "092210.031000", 
                "092210.000000", 
                "092210.031000", 
                "092210.000000", 
                "092210.031000", 
                "092210.000000", 
                "092210.046000", 
                "092210.000000", 
                "092210.046000", 
                "092210.000000", 
                "092210.046000", 
                "092210.000000", 
                "092210.046000", 
                "092210.015000", 
                "092210.046000", 
                "092210.015000", 
                "092210.046000", 
                "092210.015000", 
                "092210.046000", 
                "092210.015000", 
                "092210.046000", 
                "092210.015000", 
                "092210.046000", 
                "092210.015000", 
                "092210.062000", 
                "092210.015000", 
                "092210.062000", 
                "092210.031000", 
                "092210.062000", 
                "092210.031000", 
                "092210.062000", 
                "092210.031000", 
                "092210.062000", 
                "092210.031000", 
                "092210.062000", 
                "092210.031000"
            ], 
            "InstanceNumber": [
                1, 
                2, 
                3, 
                4, 
                5, 
                6, 
                7, 
                8, 
                9, 
                10, 
                11, 
                12, 
                13, 
                14, 
                15, 
                16, 
                17, 
                18, 
                19, 
                20, 
                21, 
                22, 
                23, 
                24, 
                25, 
                26, 
                27, 
                28, 
                29, 
                30, 
                31, 
                32, 
                33, 
                34, 
                35, 
                36
            ], 
            "LargestImagePixelValue": [
                4091, 
                4094, 
                4090, 
                4091, 
                4094, 
                4094, 
                4094, 
                4087, 
                4090, 
                4091, 
                4094, 
                4094, 
                4088, 
                4093, 
                4094, 
                4086, 
                4094, 
                4094, 
                4085, 
                4092, 
                4094, 
                4094, 
                4094, 
                4094, 
                4093, 
                4093, 
                4094, 
                4093, 
                4093, 
                4094, 
                4094, 
                4089, 
                4093, 
                4094, 
                4094, 
                4093
            ], 
            "SliceLocation": [
                -55.594102550827, 
                -52.594102800855, 
                -49.594103041783, 
                -46.594103085818, 
                -43.594103326746, 
                -40.594103576774, 
                -37.594103620809, 
                -34.594101965894, 
                -31.594102215922, 
                -28.594102456849, 
                -25.594102500885, 
                -22.594102750913, 
                -19.59410299184, 
                -16.594103035876, 
                -13.594102328882, 
                -10.59410257891, 
                -7.5941026138451, 
                -4.5941026268927, 
                -1.5941026946352, 
                1.4058973561125, 
                4.4058975490573, 
                7.4058973035796, 
                10.405897058102, 
                13.405897018617, 
                16.405896773139, 
                19.405896527661, 
                22.405896282183, 
                25.405898133991, 
                28.405897888513, 
                31.405895747192, 
                34.405895707707, 
                37.405895462229, 
                40.405899008437, 
                43.405898964402, 
                46.405898718924, 
                49.405898473446
            ], 
            "SmallestImagePixelValue": [
                3, 
                4, 
                1, 
                0, 
                4, 
                11, 
                1, 
                7, 
                2, 
                1, 
                1, 
                7, 
                0, 
                0, 
                8, 
                1, 
                0, 
                2, 
                7, 
                1, 
                0, 
                6, 
                0, 
                1, 
                2, 
                5, 
                0, 
                1, 
                0, 
                1, 
                0, 
                2, 
                2, 
                1, 
                2, 
                1
            ], 
            "WindowCenter": [
                -262.0, 
                -382.0, 
                -578.0, 
                -546.0, 
                -468.0, 
                -368.0, 
                -328.0, 
                -302.0, 
                -256.0, 
                -250.0, 
                -226.0, 
