{
  "aor": 0.0016443514644351464,
  "aqi": 0.015228535146443513,
  "bids_meta": {
    "AcquisitionMatrixPE": 68,
    "AcquisitionNumber": 1,
    "AcquisitionTime": "16:10:54.260000",
    "BandwidthPerPixelPhaseEncode": 31.289,
    "BaseResolution": 68,
    "CogAtlasID": "TODO",
    "CoilString": "C:HEA;HEP",
    "ConversionSoftware": "dcm2niix",
    "ConversionSoftwareVersion": "v1.0.20190902",
    "DerivedVendorReportedEchoSpacing": 0.000470002,
    "DeviceSerialNumber": "35450",
    "DwellTime": 3e-06,
    "EchoTime": 0.023,
    "EffectiveEchoSpacing": 0.000470002,
    "FlipAngle": 76,
    "ImageOrientationPatientDICOM": [
      1,
      0,
      0,
      0,
      0.996041,
      0.0888943
    ],
    "ImageType": [
      "ORIGINAL",
      "PRIMARY",
      "M",
      "ND",
      "MOSAIC"
    ],
    "ImagingFrequency": 123.219,
    "InPlanePhaseEncodingDirectionDICOM": "COL",
    "InstitutionAddress": "Univeristy_Ave._197_Newark_North_East_US_07102-1814",
    "InstitutionName": "RUBIC",
    "InstitutionalDepartmentName": "Department",
    "MRAcquisitionType": "2D",
    "MagneticFieldStrength": 3,
    "Manufacturer": "Siemens",
    "ManufacturersModelName": "TrioTim",
    "Modality": "MR",
    "PartialFourier": 1,
    "PatientPosition": "HFS",
    "PercentPhaseFOV": 100,
    "PhaseEncodingDirection": "j-",
    "PhaseEncodingSteps": 68,
    "PhaseResolution": 1,
    "PixelBandwidth": 2451,
    "ProcedureStepDescription": "Krekelberg_David",
    "ProtocolName": "ep2d_bold_RestEPI_3",
    "PulseSequenceDetails": "%SiemensSeq%_ep2d_bold",
    "ReceiveCoilName": "HeadMatrix",
    "ReconMatrixPE": 68,
    "RepetitionTime": 2,
    "SAR": 0.203236,
    "ScanOptions": "FS",
    "ScanningSequence": "EP",
    "SequenceName": "_epfid2d1_68",
    "SequenceVariant": "SK",
    "SeriesDescription": "ep2d_bold_RestEPI_3",
    "SeriesNumber": 10,
    "ShimSetting": [
      1936,
      -713,
      -7555,
      640,
      136,
      -102,
      113,
      -52
    ],
    "SliceThickness": 2.5,
    "SliceTiming": [
      1.95,
      1.895,
      1.84,
      1.7825,
      1.7275,
      1.6725,
      1.615,
      1.56,
      1.505,
      1.45,
      1.3925,
      1.3375,
      1.2825,
      1.225,
      1.17,
      1.115,
      1.0575,
      1.0025,
      0.9475,
      0.89,
      0.835,
      0.78,
      0.725,
      0.6675,
      0.6125,
      0.5575,
      0.5,
      0.445,
      0.39,
      0.3325,
      0.2775,
      0.2225,
      0.165,
      0.11,
      0.055,
      0
    ],
    "SoftwareVersions": "syngo_MR_B19",
    "SpacingBetweenSlices": 3,
    "StationName": "MRC35450",
    "TaskName": "rest",
    "TotalReadoutTime": 0.0314901,
    "TxRefAmp": 378.862,
    "dataset": "<unset>",
    "dcmmeta_affine": [
      [
        -3.0,
        0.0,
        0.0,
        101.32203674316406
      ],
      [
        0.0,
        2.9881231784820557,
        0.26668286323547363,
        -68.69874572753906
      ],
      [
        0.0,
        -0.266682893037796,
        2.9881231784820557,
        -31.28822898864746
      ],
      [
        0.0,
        0.0,
        0.0,
        1.0
      ]
    ],
    "dcmmeta_reorient_transform": [
      [
        0.0,
        -1.0,
        0.0,
        67.0
      ],
      [
        1.0,
        0.0,
        0.0,
        0.0
      ],
      [
        0.0,
        0.0,
        1.0,
        0.0
      ],
      [
        0.0,
        0.0,
        0.0,
        1.0
      ]
    ],
    "dcmmeta_shape": [
      68,
      68,
      36,
      240
    ],
    "dcmmeta_slice_dim": 2,
    "dcmmeta_version": 0.6,
    "global": {
      "const": {
        "AcquisitionMatrix": [
          68,
          0,
          0,
          68
        ],
        "AngioFlag": "N",
        "BitsAllocated": 16,
        "BitsStored": 12,
        "Columns": 408,
        "EchoNumbers": 1,
        "EchoTime": 23.0,
        "EchoTrainLength": 1,
        "FlipAngle": 76.0,
        "HighBit": 11,
        "ImageOrientationPatient": [
          1.0,
          0.0,
          0.0,
          0.0,
          0.99604106564855,
          0.08889429420219
        ],
        "ImagePositionPatient": [
          -611.32203388214,
          -639.48645300821,
          -94.492072242413
        ],
        "ImageType": [
          "ORIGINAL",
          "PRIMARY",
          "M",
          "ND",
          "MOSAIC"
        ],
        "ImagedNucleus": "1H",
        "ImagingFrequency": 123.218581,
        "InPlanePhaseEncodingDirection": "COL",
        "MRAcquisitionType": "2D",
        "MagneticFieldStrength": 3.0,
        "Manufacturer": "SIEMENS",
        "ManufacturerModelName": "TrioTim",
        "Modality": "MR",
        "NumberOfAverages": 1.0,
        "NumberOfPhaseEncodingSteps": 68,
        "PercentPhaseFieldOfView": 100.0,
        "PercentSampling": 100.0,
        "PerformedProcedureStepStartTime": "150344.265000",
        "PhotometricInterpretation": "MONOCHROME2",
        "PixelBandwidth": 2451.0,
        "PixelRepresentation": 0,
        "PixelSpacing": [
          3.0,
          3.0
        ],
        "ProtocolName": "ep2d_bold_RestEPI_3",
        "RepetitionTime": 2000.0,
        "Rows": 408,
        "SAR": 0.20323609203813,
        "SamplesPerPixel": 1,
        "ScanOptions": "FS",
        "ScanningSequence": "EP",
        "SequenceName": "*epfid2d1_68",
        "SequenceVariant": "SK",
        "SeriesDescription": "ep2d_bold_RestEPI_3",
        "SeriesNumber": 10,
        "SeriesTime": "161138.046000",
        "SliceLocation": -37.271287439647,
        "SliceThickness": 2.5,
        "SmallestImagePixelValue": 0,
        "SoftwareVersions": "syngo MR B19",
        "SpacingBetweenSlices": 2.9999999058582,
        "SpecificCharacterSet": "ISO_IR 100",
        "StudyID": "1",
        "StudyTime": "150344.218000",
        "TransmitCoilName": "Body",
        "VariableFlipAngleFlag": "N",
        "WindowCenterWidthExplanation": "Algo1",
        "dBdt": 0.0
      },
      "slices": {}
    },
    "modality": "bold",
    "run_id": 3,
    "subject_id": "217",
    "task_id": "rest",
    "time": {
      "samples": {
        "AcquisitionNumber": [
          1,
          2,
          3,
          4,
          5,
          6,
          7,
          8,
          9,
          10,
          11,
          12,
          13,
          14,
          15,
          16,
          17,
          18,
          19,
          20,
          21,
          22,
          23,
          24,
          25,
          26,
          27,
          28,
          29,
          30,
          31,
          32,
          33,
          34,
          35,
          36,
          37,
          38,
          39,
          40,
          41,
          42,
          43,
          44,
          45,
          46,
          47,
          48,
          49,
          50,
          51,
          52,
          53,
          54,
          55,
          56,
          57,
          58,
          59,
          60,
          61,
          62,
          63,
          64,
          65,
          66,
          67,
          68,
          69,
          70,
          71,
          72,
          73,
          74,
          75,
          76,
          77,
          78,
          79,
          80,
          81,
          82,
          83,
          84,
          85,
          86,
          87,
          88,
          89,
          90,
          91,
          92,
          93,
          94,
          95,
          96,
          97,
          98,
          99,
          100,
          101,
          102,
          103,
          104,
          105,
          106,
          107,
          108,
          109,
          110,
          111,
          112,
          113,
          114,
          115,
          116,
          117,
          118,
          119,
          120,
          121,
          122,
          123,
          124,
          125,
          126,
          127,
          128,
          129,
          130,
          131,
          132,
          133,
          134,
          135,
          136,
          137,
          138,
          139,
          140,
          141,
          142,
          143,
          144,
          145,
          146,
          147,
          148,
          149,
          150,
          151,
          152,
          153,
          154,
          155,
          156,
          157,
          158,
          159,
          160,
          161,
          162,
          163,
          164,
          165,
          166,
          167,
          168,
          169,
          170,
          171,
          172,
          173,
          174,
          175,
          176,
          177,
          178,
          179,
          180,
          181,
          182,
          183,
          184,
          185,
          186,
          187,
          188,
          189,
          190,
          191,
          192,
          193,
          194,
          195,
          196,
          197,
          198,
          199,
          200,
          201,
          202,
          203,
          204,
          205,
          206,
          207,
          208,
          209,
          210,
          211,
          212,
          213,
          214,
          215,
          216,
          217,
          218,
          219,
          220,
          221,
          222,
          223,
          224,
          225,
          226,
          227,
          228,
          229,
          230,
          231,
          232,
          233,
          234,
          235,
          236,
          237,
          238,
          239,
          240
        ],
        "AcquisitionTime": [
          "161054.260000",
          "161056.267500",
          "161058.277500",
          "161100.285000",
          "161102.292500",
          "161104.300000",
          "161106.310000",
          "161108.317500",
          "161110.325000",
          "161112.332500",
          "161114.340000",
          "161116.350000",
          "161118.357500",
          "161120.365000",
          "161122.372500",
          "161124.380000",
          "161126.390000",
          "161128.397500",
          "161130.405000",
          "161132.412500",
          "161134.422500",
          "161136.430000",
          "161138.437500",
          "161140.445000",
          "161142.452500",
          "161144.462500",
          "161146.470000",
          "161148.477500",
          "161150.485000",
          "161152.492500",
          "161154.502500",
          "161156.510000",
          "161158.517500",
          "161200.525000",
          "161202.532500",
          "161204.542500",
          "161206.550000",
          "161208.557500",
          "161210.565000",
          "161212.575000",
          "161214.582500",
          "161216.590000",
          "161218.597500",
          "161220.605000",
          "161222.615000",
          "161224.622500",
          "161226.630000",
          "161228.637500",
          "161230.645000",
          "161232.655000",
          "161234.662500",
          "161236.670000",
          "161238.677500",
          "161240.687500",
          "161242.695000",
          "161244.702500",
          "161246.710000",
          "161248.717500",
          "161250.727500",
          "161252.735000",
          "161254.742500",
          "161256.750000",
          "161258.757500",
          "161300.767500",
          "161302.775000",
          "161304.782500",
          "161306.790000",
          "161308.800000",
          "161310.807500",
          "161312.815000",
          "161314.822500",
          "161316.830000",
          "161318.840000",
          "161320.847500",
          "161322.855000",
          "161324.862500",
          "161326.870000",
          "161328.880000",
          "161330.887500",
          "161332.895000",
          "161334.902500",
          "161336.910000",
          "161338.920000",
          "161340.927500",
          "161342.935000",
          "161344.942500",
          "161346.952500",
          "161348.960000",
          "161350.967500",
          "161352.975000",
          "161354.982500",
          "161356.992500",
          "161359.000000",
          "161401.007500",
          "161403.015000",
          "161405.022500",
          "161407.032500",
          "161409.040000",
          "161411.047500",
          "161413.055000",
          "161415.065000",
          "161417.072500",
          "161419.080000",
          "161421.087500",
          "161423.095000",
          "161425.105000",
          "161427.112500",
          "161429.120000",
          "161431.127500",
          "161433.135000",
          "161435.145000",
          "161437.152500",
          "161439.160000",
          "161441.167500",
          "161443.177500",
          "161445.185000",
          "161447.192500",
          "161449.200000",
          "161451.207500",
          "161453.217500",
          "161455.225000",
          "161457.232500",
          "161459.240000",
          "161501.247500",
          "161503.257500",
          "161505.265000",
          "161507.272500",
          "161509.280000",
          "161511.290000",
          "161513.297500",
          "161515.305000",
          "161517.312500",
          "161519.320000",
          "161521.330000",
          "161523.337500",
          "161525.345000",
          "161527.352500",
          "161529.360000",
          "161531.370000",
          "161533.377500",
          "161535.385000",
          "161537.392500",
          "161539.400000",
          "161541.410000",
          "161543.417500",
          "161545.425000",
          "161547.432500",
          "161549.442500",
          "161551.450000",
          "161553.457500",
          "161555.465000",
          "161557.472500",
          "161559.482500",
          "161601.490000",
          "161603.497500",
          "161605.505000",
          "161607.512500",
          "161609.522500",
          "161611.530000",
          "161613.537500",
          "161615.545000",
          "161617.555000",
          "161619.562500",
          "161621.570000",
          "161623.577500",
          "161625.585000",
          "161627.595000",
          "161629.602500",
          "161631.610000",
          "161633.617500",
          "161635.625000",
          "161637.635000",
          "161639.642500",
          "161641.650000",
          "161643.657500",
          "161645.667500",
          "161647.675000",
          "161649.682500",
          "161651.690000",
          "161653.697500",
          "161655.707500",
          "161657.715000",
          "161659.722500",
          "161701.730000",
          "161703.737500",
          "161705.747500",
          "161707.755000",
          "161709.762500",
          "161711.770000",
          "161713.777500",
          "161715.787500",
          "161717.795000",
          "161719.802500",
          "161721.810000",
          "161723.820000",
          "161725.827500",
          "161727.835000",
          "161729.842500",
          "161731.850000",
          "161733.860000",
          "161735.867500",
          "161737.875000",
          "161739.882500",
          "161741.890000",
          "161743.900000",
          "161745.907500",
          "161747.915000",
          "161749.922500",
          "161751.932500",
          "161753.940000",
          "161755.947500",
          "161757.955000",
          "161759.962500",
          "161801.972500",
          "161803.980000",
          "161805.987500",
          "161807.995000",
          "161810.002500",
          "161812.012500",
          "161814.020000",
          "161816.027500",
          "161818.035000",
          "161820.045000",
          "161822.052500",
          "161824.060000",
          "161826.067500",
          "161828.075000",
          "161830.085000",
          "161832.092500",
          "161834.100000",
          "161836.107500",
          "161838.115000",
          "161840.125000",
          "161842.132500",
          "161844.140000",
          "161846.147500",
          "161848.155000",
          "161850.165000",
          "161852.172500",
          "161854.180000"
        ],
        "ContentTime": [
          "161138.046000",
          "161138.062000",
          "161138.062000",
          "161138.062000",
          "161138.062000",
          "161138.062000",
          "161138.062000",
          "161138.078000",
          "161138.078000",
          "161138.078000",
          "161138.078000",
          "161138.078000",
          "161138.078000",
          "161138.078000",
          "161138.078000",
          "161138.093000",
          "161138.093000",
          "161138.093000",
          "161138.093000",
          "161138.093000",
          "161138.093000",
          "161138.093000",
          "161218.046000",
          "161218.046000",
          "161218.046000",
          "161218.046000",
          "161218.046000",
          "161218.046000",
          "161218.046000",
          "161218.062000",
          "161218.062000",
          "161218.062000",
          "161218.062000",
          "161218.062000",
          "161218.062000",
          "161218.062000",
          "161218.062000",
          "161218.078000",
          "161218.078000",
          "161218.078000",
          "161218.078000",
          "161218.078000",
          "161258.046000",
          "161258.046000",
          "161258.046000",
          "161258.046000",
          "161258.046000",
          "161258.046000",
          "161258.046000",
          "161258.062000",
          "161258.062000",
          "161258.062000",
          "161258.062000",
          "161258.062000",
          "161258.062000",
          "161258.062000",
          "161258.078000",
          "161258.078000",
          "161258.078000",
          "161258.078000",
          "161258.078000",
          "161258.078000",
          "161338.046000",
          "161338.046000",
          "161338.046000",
          "161338.046000",
          "161338.046000",
          "161338.046000",
          "161338.046000",
          "161338.062000",
          "161338.062000",
          "161338.062000",
          "161338.062000",
          "161338.062000",
          "161338.062000",
          "161338.062000",
          "161338.062000",
          "161338.078000",
          "161338.078000",
          "161338.078000",
          "161338.078000",
          "161338.078000",
          "161418.046000",
          "161418.046000",
          "161418.046000",
          "161418.046000",
          "161418.046000",
          "161418.046000",
          "161418.046000",
          "161418.062000",
          "161418.062000",
          "161418.062000",
          "161418.062000",
          "161418.062000",
          "161418.062000",
          "161418.062000",
          "161418.078000",
          "161418.078000",
          "161418.078000",
          "161418.078000",
          "161418.078000",
          "161418.078000",
          "161458.046000",
          "161458.046000",
          "161458.046000",
          "161458.046000",
          "161458.046000",
          "161458.046000",
          "161458.046000",
          "161458.046000",
          "161458.062000",
          "161458.062000",
          "161458.062000",
          "161458.062000",
          "161458.062000",
          "161458.062000",
          "161458.062000",
          "161458.078000",
          "161458.078000",
          "161458.078000",
          "161458.078000",
          "161458.078000",
          "161538.046000",
          "161538.046000",
          "161538.046000",
          "161538.046000",
          "161538.046000",
          "161538.046000",
          "161538.046000",
          "161538.062000",
          "161538.062000",
          "161538.062000",
          "161538.062000",
          "161538.062000",
          "161538.062000",
          "161538.062000",
          "161538.062000",
          "161538.078000",
          "161538.078000",
          "161538.078000",
          "161538.078000",
          "161538.078000",
          "161618.046000",
          "161618.046000",
          "161618.046000",
          "161618.046000",
          "161618.046000",
          "161618.046000",
          "161618.046000",
          "161618.062000",
          "161618.062000",
          "161618.062000",
          "161618.062000",
          "161618.062000",
          "161618.062000",
          "161618.062000",
          "161618.062000",
          "161618.078000",
          "161618.078000",
          "161618.078000",
          "161618.078000",
          "161618.078000",
          "161658.046000",
          "161658.046000",
          "161658.046000",
          "161658.046000",
          "161658.046000",
          "161658.046000",
          "161658.046000",
          "161658.062000",
          "161658.062000",
          "161658.062000",
          "161658.062000",
          "161658.062000",
          "161658.062000",
          "161658.062000",
          "161658.062000",
          "161658.078000",
          "161658.078000",
          "161658.078000",
          "161658.078000",
          "161658.078000",
          "161738.046000",
          "161738.046000",
          "161738.046000",
          "161738.046000",
          "161738.046000",
          "161738.046000",
          "161738.046000",
          "161738.062000",
          "161738.062000",
          "161738.062000",
          "161738.062000",
          "161738.062000",
          "161738.062000",
          "161738.062000",
          "161738.062000",
          "161738.078000",
          "161738.078000",
          "161738.078000",
          "161738.078000",
          "161738.078000",
          "161818.046000",
          "161818.046000",
          "161818.046000",
          "161818.046000",
          "161818.046000",
          "161818.046000",
          "161818.046000",
          "161818.062000",
          "161818.062000",
          "161818.062000",
          "161818.062000",
          "161818.062000",
          "161818.062000",
          "161818.062000",
          "161818.062000",
          "161818.078000",
          "161818.078000",
          "161818.078000",
          "161818.078000",
          "161818.078000",
          "161852.875000",
          "161852.875000",
          "161852.875000",
          "161852.875000",
          "161852.875000",
          "161852.875000",
          "161852.890000",
          "161852.890000",
          "161852.890000",
          "161852.890000",
          "161852.890000",
          "161852.890000",
          "161852.890000",
          "161852.906000",
          "161852.906000",
          "161852.906000",
          "161852.906000",
          "161852.906000"
        ],
        "InstanceCreationTime": [
          "161138.046000",
          "161138.062000",
          "161138.062000",
          "161138.062000",
          "161138.062000",
          "161138.062000",
          "161138.062000",
          "161138.078000",
          "161138.078000",
          "161138.078000",
          "161138.078000",
          "161138.078000",
          "161138.078000",
          "161138.078000",
          "161138.078000",
          "161138.093000",
          "161138.093000",
          "161138.093000",
          "161138.093000",
          "161138.093000",
          "161138.093000",
          "161138.093000",
          "161218.046000",
          "161218.046000",
          "161218.046000",
          "161218.046000",
          "161218.046000",
          "161218.046000",
          "161218.046000",
          "161218.062000",
          "161218.062000",
          "161218.062000",
          "161218.062000",
          "161218.062000",
          "161218.062000",
          "161218.062000",
          "161218.062000",
          "161218.078000",
          "161218.078000",
          "161218.078000",
          "161218.078000",
          "161218.078000",
          "161258.046000",
          "161258.046000",
          "161258.046000",
          "161258.046000",
          "161258.046000",
          "161258.046000",
          "161258.046000",
          "161258.062000",
          "161258.062000",
          "161258.062000",
          "161258.062000",
          "161258.062000",
          "161258.062000",
          "161258.062000",
          "161258.078000",
          "161258.078000",
          "161258.078000",
          "161258.078000",
          "161258.078000",
          "161258.078000",
          "161338.046000",
          "161338.046000",
          "161338.046000",
          "161338.046000",
          "161338.046000",
          "161338.046000",
          "161338.046000",
          "161338.062000",
          "161338.062000",
          "161338.062000",
          "161338.062000",
          "161338.062000",
          "161338.062000",
          "161338.062000",
          "161338.062000",
          "161338.078000",
          "161338.078000",
          "161338.078000",
          "161338.078000",
          "161338.078000",
          "161418.046000",
          "161418.046000",
          "161418.046000",
          "161418.046000",
          "161418.046000",
          "161418.046000",
          "161418.046000",
          "161418.062000",
          "161418.062000",
          "161418.062000",
          "161418.062000",
          "161418.062000",
          "161418.062000",
          "161418.062000",
          "161418.078000",
          "161418.078000",
          "161418.078000",
          "161418.078000",
          "161418.078000",
          "161418.078000",
          "161458.046000",
          "161458.046000",
          "161458.046000",
          "161458.046000",
          "161458.046000",
          "161458.046000",
          "161458.046000",
          "161458.046000",
          "161458.062000",
          "161458.062000",
          "161458.062000",
          "161458.062000",
          "161458.062000",
          "161458.062000",
          "161458.062000",
          "161458.078000",
          "161458.078000",
          "161458.078000",
          "161458.078000",
          "161458.078000",
          "161538.046000",
          "161538.046000",
          "161538.046000",
          "161538.046000",
          "161538.046000",
          "161538.046000",
          "161538.046000",
          "161538.062000",
          "161538.062000",
          "161538.062000",
          "161538.062000",
          "161538.062000",
          "161538.062000",
          "161538.062000",
          "161538.062000",
          "161538.078000",
          "161538.078000",
          "161538.078000",
          "161538.078000",
          "161538.078000",
          "161618.046000",
          "161618.046000",
          "161618.046000",
          "161618.046000",
          "161618.046000",
          "161618.046000",
          "161618.046000",
          "161618.062000",
          "161618.062000",
          "161618.062000",
          "161618.062000",
          "161618.062000",
          "161618.062000",
          "161618.062000",
          "161618.062000",
          "161618.078000",
          "161618.078000",
          "161618.078000",
          "161618.078000",
          "161618.078000",
          "161658.046000",
          "161658.046000",
          "161658.046000",
          "161658.046000",
          "161658.046000",
          "161658.046000",
          "161658.046000",
          "161658.062000",
          "161658.062000",
          "161658.062000",
          "161658.062000",
          "161658.062000",
          "161658.062000",
          "161658.062000",
          "161658.062000",
          "161658.078000",
          "161658.078000",
          "161658.078000",
          "161658.078000",
          "161658.078000",
          "161738.046000",
          "161738.046000",
          "161738.046000",
          "161738.046000",
          "161738.046000",
          "161738.046000",
          "161738.046000",
          "161738.062000",
          "161738.062000",
          "161738.062000",
          "161738.062000",
          "161738.062000",
          "161738.062000",
          "161738.062000",
          "161738.062000",
          "161738.078000",
          "161738.078000",
          "161738.078000",
          "161738.078000",
          "161738.078000",
          "161818.046000",
          "161818.046000",
          "161818.046000",
          "161818.046000",
          "161818.046000",
          "161818.046000",
          "161818.046000",
          "161818.062000",
          "161818.062000",
          "161818.062000",
          "161818.062000",
          "161818.062000",
          "161818.062000",
          "161818.062000",
          "161818.062000",
          "161818.078000",
          "161818.078000",
          "161818.078000",
          "161818.078000",
          "161818.078000",
          "161852.875000",
          "161852.875000",
          "161852.875000",
          "161852.875000",
          "161852.875000",
          "161852.875000",
          "161852.890000",
          "161852.890000",
          "161852.890000",
          "161852.890000",
          "161852.890000",
          "161852.890000",
          "161852.890000",
          "161852.906000",
          "161852.906000",
          "161852.906000",
          "161852.906000",
          "161852.906000"
        ],
        "InstanceNumber": [
          1,
          2,
          3,
          4,
          5,
          6,
          7,
          8,
          9,
          10,
          11,
          12,
          13,
          14,
          15,
          16,
          17,
          18,
          19,
          20,
          21,
          22,
          23,
          24,
          25,
          26,
          27,
          28,
          29,
          30,
          31,
          32,
          33,
          34,
          35,
          36,
          37,
          38,
          39,
          40,
          41,
          42,
          43,
          44,
          45,
          46,
          47,
          48,
          49,
          50,
          51,
          52,
          53,
          54,
          55,
          56,
          57,
          58,
