{
  "aor": 0.0006768093385214007,
  "aqi": 0.020343636575875488,
  "bids_meta": {
    "AcquisitionMatrixPE": 68,
    "AcquisitionNumber": 1,
    "AcquisitionTime": "15:29:34.550000",
    "BandwidthPerPixelPhaseEncode": 31.289,
    "BaseResolution": 68,
    "CogAtlasID": "TODO",
    "CoilString": "C:HEA;HEP",
    "ConversionSoftware": "dcm2niix",
    "ConversionSoftwareVersion": "v1.0.20190902",
    "DerivedVendorReportedEchoSpacing": 0.000470002,
    "DeviceSerialNumber": "35450",
    "DwellTime": 3e-06,
    "EchoTime": 0.023,
    "EffectiveEchoSpacing": 0.000470002,
    "FlipAngle": 76,
    "ImageOrientationPatientDICOM": [
      1,
      0,
      0,
      0,
      0.996041,
      0.0888943
    ],
    "ImageType": [
      "ORIGINAL",
      "PRIMARY",
      "M",
      "ND",
      "MOSAIC"
    ],
    "ImagingFrequency": 123.219,
    "InPlanePhaseEncodingDirectionDICOM": "COL",
    "InstitutionAddress": "Univeristy_Ave._197_Newark_North_East_US_07102-1814",
    "InstitutionName": "RUBIC",
    "InstitutionalDepartmentName": "Department",
    "MRAcquisitionType": "2D",
    "MagneticFieldStrength": 3,
    "Manufacturer": "Siemens",
    "ManufacturersModelName": "TrioTim",
    "Modality": "MR",
    "PartialFourier": 1,
    "PatientPosition": "HFS",
    "PercentPhaseFOV": 100,
    "PhaseEncodingDirection": "j-",
    "PhaseEncodingSteps": 68,
    "PhaseResolution": 1,
    "PixelBandwidth": 2451,
    "ProcedureStepDescription": "Krekelberg_David",
    "ProtocolName": "ep2d_bold_CardGameEPI_1",
    "PulseSequenceDetails": "%SiemensSeq%_ep2d_bold",
    "ReceiveCoilName": "HeadMatrix",
    "ReconMatrixPE": 68,
    "RepetitionTime": 2,
    "SAR": 0.20328,
    "ScanOptions": "FS",
    "ScanningSequence": "EP",
    "SequenceName": "_epfid2d1_68",
    "SequenceVariant": "SK",
    "SeriesDescription": "ep2d_bold_CardGameEPI_1",
    "SeriesNumber": 6,
    "ShimSetting": [
      1936,
      -713,
      -7555,
      640,
      136,
      -102,
      113,
      -52
    ],
    "SliceThickness": 2.5,
    "SliceTiming": [
      1.9525,
      1.8975,
      1.84,
      1.785,
      1.73,
      1.6725,
      1.6175,
      1.5625,
      1.505,
      1.45,
      1.395,
      1.34,
      1.2825,
      1.2275,
      1.1725,
      1.115,
      1.06,
      1.005,
      0.9475,
      0.8925,
      0.8375,
      0.78,
      0.725,
      0.67,
      0.615,
      0.5575,
      0.5025,
      0.4475,
      0.39,
      0.335,
      0.28,
      0.2225,
      0.1675,
      0.1125,
      0.0575,
      0
    ],
    "SoftwareVersions": "syngo_MR_B19",
    "SpacingBetweenSlices": 3,
    "StationName": "MRC35450",
    "TaskName": "cardgame",
    "TotalReadoutTime": 0.0314901,
    "TxRefAmp": 378.862,
    "dataset": "<unset>",
    "dcmmeta_affine": [
      [
        -3.0,
        0.0,
        0.0,
        101.32203674316406
      ],
      [
        0.0,
        2.9881231784820557,
        0.26668286323547363,
        -68.69874572753906
      ],
      [
        0.0,
        -0.266682893037796,
        2.9881231784820557,
        -31.28822898864746
      ],
      [
        0.0,
        0.0,
        0.0,
        1.0
      ]
    ],
    "dcmmeta_reorient_transform": [
      [
        0.0,
        -1.0,
        0.0,
        67.0
      ],
      [
        1.0,
        0.0,
        0.0,
        0.0
      ],
      [
        0.0,
        0.0,
        1.0,
        0.0
      ],
      [
        0.0,
        0.0,
        0.0,
        1.0
      ]
    ],
    "dcmmeta_shape": [
      68,
      68,
      36,
      258
    ],
    "dcmmeta_slice_dim": 2,
    "dcmmeta_version": 0.6,
    "global": {
      "const": {
        "AcquisitionMatrix": [
          68,
          0,
          0,
          68
        ],
        "AngioFlag": "N",
        "BitsAllocated": 16,
        "BitsStored": 12,
        "Columns": 408,
        "EchoNumbers": 1,
        "EchoTime": 23.0,
        "EchoTrainLength": 1,
        "FlipAngle": 76.0,
        "HighBit": 11,
        "ImageOrientationPatient": [
          1.0,
          0.0,
          0.0,
          0.0,
          0.99604106564855,
          0.08889429420219
        ],
        "ImagePositionPatient": [
          -611.32203388214,
          -639.48645300821,
          -94.492072242413
        ],
        "ImageType": [
          "ORIGINAL",
          "PRIMARY",
          "M",
          "ND",
          "MOSAIC"
        ],
        "ImagedNucleus": "1H",
        "ImagingFrequency": 123.218518,
        "InPlanePhaseEncodingDirection": "COL",
        "MRAcquisitionType": "2D",
        "MagneticFieldStrength": 3.0,
        "Manufacturer": "SIEMENS",
        "ManufacturerModelName": "TrioTim",
        "Modality": "MR",
        "NumberOfAverages": 1.0,
        "NumberOfPhaseEncodingSteps": 68,
        "PercentPhaseFieldOfView": 100.0,
        "PercentSampling": 100.0,
        "PerformedProcedureStepStartTime": "150344.265000",
        "PhotometricInterpretation": "MONOCHROME2",
        "PixelBandwidth": 2451.0,
        "PixelRepresentation": 0,
        "PixelSpacing": [
          3.0,
          3.0
        ],
        "ProtocolName": "ep2d_bold_CardGameEPI_1",
        "RepetitionTime": 2000.0,
        "Rows": 408,
        "SAR": 0.2032795725773,
        "SamplesPerPixel": 1,
        "ScanOptions": "FS",
        "ScanningSequence": "EP",
        "SequenceName": "*epfid2d1_68",
        "SequenceVariant": "SK",
        "SeriesDescription": "ep2d_bold_CardGameEPI_1",
        "SeriesNumber": 6,
        "SeriesTime": "153013.531000",
        "SliceLocation": -37.271287439647,
        "SliceThickness": 2.5,
        "SmallestImagePixelValue": 0,
        "SoftwareVersions": "syngo MR B19",
        "SpacingBetweenSlices": 2.9999999058582,
        "SpecificCharacterSet": "ISO_IR 100",
        "StudyID": "1",
        "StudyTime": "150344.218000",
        "TransmitCoilName": "Body",
        "VariableFlipAngleFlag": "N",
        "WindowCenterWidthExplanation": "Algo1",
        "dBdt": 0.0
      },
      "slices": {}
    },
    "modality": "bold",
    "run_id": 1,
    "subject_id": "217",
    "task_id": "cardgame",
    "time": {
      "samples": {
        "AcquisitionNumber": [
          1,
          2,
          3,
          4,
          5,
          6,
          7,
          8,
          9,
          10,
          11,
          12,
          13,
          14,
          15,
          16,
          17,
          18,
          19,
          20,
          21,
          22,
          23,
          24,
          25,
          26,
          27,
          28,
          29,
          30,
          31,
          32,
          33,
          34,
          35,
          36,
          37,
          38,
          39,
          40,
          41,
          42,
          43,
          44,
          45,
          46,
          47,
          48,
          49,
          50,
          51,
          52,
          53,
          54,
          55,
          56,
          57,
          58,
          59,
          60,
          61,
          62,
          63,
          64,
          65,
          66,
          67,
          68,
          69,
          70,
          71,
          72,
          73,
          74,
          75,
          76,
          77,
          78,
          79,
          80,
          81,
          82,
          83,
          84,
          85,
          86,
          87,
          88,
          89,
          90,
          91,
          92,
          93,
          94,
          95,
          96,
          97,
          98,
          99,
          100,
          101,
          102,
          103,
          104,
          105,
          106,
          107,
          108,
          109,
          110,
          111,
          112,
          113,
          114,
          115,
          116,
          117,
          118,
          119,
          120,
          121,
          122,
          123,
          124,
          125,
          126,
          127,
          128,
          129,
          130,
          131,
          132,
          133,
          134,
          135,
          136,
          137,
          138,
          139,
          140,
          141,
          142,
          143,
          144,
          145,
          146,
          147,
          148,
          149,
          150,
          151,
          152,
          153,
          154,
          155,
          156,
          157,
          158,
          159,
          160,
          161,
          162,
          163,
          164,
          165,
          166,
          167,
          168,
          169,
          170,
          171,
          172,
          173,
          174,
          175,
          176,
          177,
          178,
          179,
          180,
          181,
          182,
          183,
          184,
          185,
          186,
          187,
          188,
          189,
          190,
          191,
          192,
          193,
          194,
          195,
          196,
          197,
          198,
          199,
          200,
          201,
          202,
          203,
          204,
          205,
          206,
          207,
          208,
          209,
          210,
          211,
          212,
          213,
          214,
          215,
          216,
          217,
          218,
          219,
          220,
          221,
          222,
          223,
          224,
          225,
          226,
          227,
          228,
          229,
          230,
          231,
          232,
          233,
          234,
          235,
          236,
          237,
          238,
          239,
          240,
          241,
          242,
          243,
          244,
          245,
          246,
          247,
          248,
          249,
          250,
          251,
          252,
          253,
          254,
          255,
          256,
          257,
          258
        ],
        "AcquisitionTime": [
          "152934.550000",
          "152936.557500",
          "152938.565000",
          "152940.575000",
          "152942.582500",
          "152944.590000",
          "152946.597500",
          "152948.605000",
          "152950.615000",
          "152952.622500",
          "152954.630000",
          "152956.637500",
          "152958.645000",
          "153000.655000",
          "153002.662500",
          "153004.670000",
          "153006.677500",
          "153008.685000",
          "153010.695000",
          "153012.702500",
          "153014.710000",
          "153016.717500",
          "153018.727500",
          "153020.735000",
          "153022.742500",
          "153024.750000",
          "153026.757500",
          "153028.767500",
          "153030.775000",
          "153032.782500",
          "153034.790000",
          "153036.797500",
          "153038.807500",
          "153040.815000",
          "153042.822500",
          "153044.830000",
          "153046.840000",
          "153048.847500",
          "153050.855000",
          "153052.862500",
          "153054.870000",
          "153056.880000",
          "153058.887500",
          "153100.895000",
          "153102.902500",
          "153104.910000",
          "153106.920000",
          "153108.927500",
          "153110.935000",
          "153112.942500",
          "153114.952500",
          "153116.960000",
          "153118.967500",
          "153120.975000",
          "153122.982500",
          "153124.992500",
          "153127.000000",
          "153129.007500",
          "153131.015000",
          "153133.022500",
          "153135.032500",
          "153137.040000",
          "153139.047500",
          "153141.055000",
          "153143.065000",
          "153145.072500",
          "153147.080000",
          "153149.087500",
          "153151.095000",
          "153153.105000",
          "153155.112500",
          "153157.120000",
          "153159.127500",
          "153201.135000",
          "153203.145000",
          "153205.152500",
          "153207.160000",
          "153209.167500",
          "153211.175000",
          "153213.185000",
          "153215.192500",
          "153217.200000",
          "153219.207500",
          "153221.217500",
          "153223.225000",
          "153225.232500",
          "153227.240000",
          "153229.247500",
          "153231.257500",
          "153233.265000",
          "153235.272500",
          "153237.280000",
          "153239.287500",
          "153241.297500",
          "153243.305000",
          "153245.312500",
          "153247.320000",
          "153249.330000",
          "153251.337500",
          "153253.345000",
          "153255.352500",
          "153257.360000",
          "153259.370000",
          "153301.377500",
          "153303.385000",
          "153305.392500",
          "153307.400000",
          "153309.410000",
          "153311.417500",
          "153313.425000",
          "153315.432500",
          "153317.442500",
          "153319.450000",
          "153321.457500",
          "153323.465000",
          "153325.472500",
          "153327.482500",
          "153329.490000",
          "153331.497500",
          "153333.505000",
          "153335.512500",
          "153337.522500",
          "153339.530000",
          "153341.537500",
          "153343.545000",
          "153345.552500",
          "153347.562500",
          "153349.570000",
          "153351.577500",
          "153353.585000",
          "153355.595000",
          "153357.602500",
          "153359.610000",
          "153401.617500",
          "153403.625000",
          "153405.635000",
          "153407.642500",
          "153409.650000",
          "153411.657500",
          "153413.665000",
          "153415.675000",
          "153417.682500",
          "153419.690000",
          "153421.697500",
          "153423.707500",
          "153425.715000",
          "153427.722500",
          "153429.730000",
          "153431.737500",
          "153433.747500",
          "153435.755000",
          "153437.762500",
          "153439.770000",
          "153441.777500",
          "153443.787500",
          "153445.795000",
          "153447.802500",
          "153449.810000",
          "153451.820000",
          "153453.827500",
          "153455.835000",
          "153457.842500",
          "153459.850000",
          "153501.860000",
          "153503.867500",
          "153505.875000",
          "153507.882500",
          "153509.890000",
          "153511.900000",
          "153513.907500",
          "153515.915000",
          "153517.922500",
          "153519.930000",
          "153521.940000",
          "153523.947500",
          "153525.955000",
          "153527.962500",
          "153529.972500",
          "153531.980000",
          "153533.987500",
          "153535.995000",
          "153538.002500",
          "153540.012500",
          "153542.020000",
          "153544.027500",
          "153546.035000",
          "153548.042500",
          "153550.052500",
          "153552.060000",
          "153554.067500",
          "153556.075000",
          "153558.085000",
          "153600.092500",
          "153602.100000",
          "153604.107500",
          "153606.115000",
          "153608.125000",
          "153610.132500",
          "153612.140000",
          "153614.147500",
          "153616.155000",
          "153618.165000",
          "153620.172500",
          "153622.180000",
          "153624.187500",
          "153626.197500",
          "153628.205000",
          "153630.212500",
          "153632.220000",
          "153634.227500",
          "153636.237500",
          "153638.245000",
          "153640.252500",
          "153642.260000",
          "153644.267500",
          "153646.277500",
          "153648.285000",
          "153650.292500",
          "153652.300000",
          "153654.307500",
          "153656.317500",
          "153658.325000",
          "153700.332500",
          "153702.340000",
          "153704.350000",
          "153706.357500",
          "153708.365000",
          "153710.372500",
          "153712.380000",
          "153714.390000",
          "153716.397500",
          "153718.405000",
          "153720.412500",
          "153722.420000",
          "153724.430000",
          "153726.437500",
          "153728.445000",
          "153730.452500",
          "153732.462500",
          "153734.470000",
          "153736.477500",
          "153738.485000",
          "153740.492500",
          "153742.502500",
          "153744.510000",
          "153746.517500",
          "153748.525000",
          "153750.532500",
          "153752.542500",
          "153754.550000",
          "153756.557500",
          "153758.565000",
          "153800.575000",
          "153802.582500",
          "153804.590000",
          "153806.597500",
          "153808.605000",
          "153810.615000"
        ],
        "ContentTime": [
          "153013.531000",
          "153013.531000",
          "153013.531000",
          "153013.531000",
          "153013.531000",
          "153013.546000",
          "153013.546000",
          "153013.546000",
          "153013.546000",
          "153013.546000",
          "153013.546000",
          "153013.546000",
          "153013.562000",
          "153013.562000",
          "153013.562000",
          "153013.562000",
          "153013.562000",
          "153013.562000",
          "153013.562000",
          "153013.562000",
          "153053.531000",
          "153053.531000",
          "153053.531000",
          "153053.531000",
          "153053.531000",
          "153053.531000",
          "153053.531000",
          "153053.546000",
          "153053.546000",
          "153053.546000",
          "153053.546000",
          "153053.546000",
          "153053.546000",
          "153053.546000",
          "153053.546000",
          "153053.562000",
          "153053.562000",
          "153053.562000",
          "153053.562000",
          "153053.562000",
          "153133.531000",
          "153133.531000",
          "153133.531000",
          "153133.531000",
          "153133.531000",
          "153133.531000",
          "153133.531000",
          "153133.546000",
          "153133.546000",
          "153133.546000",
          "153133.546000",
          "153133.546000",
          "153133.546000",
          "153133.546000",
          "153133.546000",
          "153133.562000",
          "153133.562000",
          "153133.562000",
          "153133.562000",
          "153133.562000",
          "153213.531000",
          "153213.531000",
          "153213.531000",
          "153213.531000",
          "153213.531000",
          "153213.531000",
          "153213.531000",
          "153213.546000",
          "153213.546000",
          "153213.546000",
          "153213.546000",
          "153213.546000",
          "153213.546000",
          "153213.546000",
          "153213.546000",
          "153213.562000",
          "153213.562000",
          "153213.562000",
          "153213.562000",
          "153213.562000",
          "153253.531000",
          "153253.531000",
          "153253.531000",
          "153253.531000",
          "153253.531000",
          "153253.531000",
          "153253.531000",
          "153253.546000",
          "153253.546000",
          "153253.546000",
          "153253.546000",
          "153253.546000",
          "153253.546000",
          "153253.546000",
          "153253.546000",
          "153253.562000",
          "153253.562000",
          "153253.562000",
          "153253.562000",
          "153253.562000",
          "153313.531000",
          "153313.531000",
          "153313.531000",
          "153313.531000",
          "153313.531000",
          "153313.531000",
          "153313.531000",
          "153313.531000",
          "153313.546000",
          "153313.546000",
          "153353.531000",
          "153353.531000",
          "153353.531000",
          "153353.531000",
          "153353.531000",
          "153353.531000",
          "153353.531000",
          "153353.531000",
          "153353.546000",
          "153353.546000",
          "153353.546000",
          "153353.546000",
          "153353.546000",
          "153353.546000",
          "153353.546000",
          "153353.562000",
          "153353.562000",
          "153353.562000",
          "153353.562000",
          "153353.562000",
          "153433.531000",
          "153433.531000",
          "153433.531000",
          "153433.531000",
          "153433.531000",
          "153433.531000",
          "153433.531000",
          "153433.546000",
          "153433.546000",
          "153433.546000",
          "153433.546000",
          "153433.546000",
          "153433.546000",
          "153433.546000",
          "153433.546000",
          "153433.562000",
          "153433.562000",
          "153433.562000",
          "153433.562000",
          "153433.562000",
          "153513.531000",
          "153513.531000",
          "153513.531000",
          "153513.531000",
          "153513.531000",
          "153513.531000",
          "153513.531000",
          "153513.531000",
          "153513.546000",
          "153513.546000",
          "153513.546000",
          "153513.546000",
          "153513.546000",
          "153513.546000",
          "153513.546000",
          "153513.562000",
          "153513.562000",
          "153513.562000",
          "153513.562000",
          "153513.562000",
          "153553.531000",
          "153553.531000",
          "153553.531000",
          "153553.531000",
          "153553.531000",
          "153553.531000",
          "153553.531000",
          "153553.531000",
          "153553.546000",
          "153553.546000",
          "153553.546000",
          "153553.546000",
          "153553.546000",
          "153553.546000",
          "153553.546000",
          "153553.562000",
          "153553.562000",
          "153553.562000",
          "153553.562000",
          "153553.562000",
          "153633.531000",
          "153633.531000",
          "153633.531000",
          "153633.531000",
          "153633.531000",
          "153633.531000",
          "153633.531000",
          "153633.531000",
          "153633.546000",
          "153633.546000",
          "153633.546000",
          "153633.546000",
          "153633.546000",
          "153633.546000",
          "153633.546000",
          "153633.562000",
          "153633.562000",
          "153633.562000",
          "153633.562000",
          "153633.562000",
          "153713.531000",
          "153713.531000",
          "153713.531000",
          "153713.531000",
          "153713.531000",
          "153713.531000",
          "153713.531000",
          "153713.531000",
          "153713.546000",
          "153713.546000",
          "153713.546000",
          "153713.546000",
          "153713.546000",
          "153713.546000",
          "153713.546000",
          "153713.562000",
          "153713.562000",
          "153713.562000",
          "153713.562000",
          "153713.562000",
          "153753.531000",
          "153753.531000",
          "153753.531000",
          "153753.531000",
          "153753.531000",
          "153753.531000",
          "153753.531000",
          "153753.531000",
          "153753.546000",
          "153753.546000",
          "153753.546000",
          "153753.546000",
          "153753.546000",
          "153753.546000",
          "153753.546000",
          "153753.562000",
          "153753.562000",
          "153753.562000",
          "153753.562000",
          "153753.562000",
          "153809.468000",
          "153809.468000",
          "153809.468000",
          "153809.468000",
          "153809.468000",
          "153809.468000",
          "153809.468000",
          "153809.484000"
        ],
        "InstanceCreationTime": [
          "153013.531000",
          "153013.531000",
          "153013.531000",
          "153013.531000",
          "153013.531000",
          "153013.546000",
          "153013.546000",
          "153013.546000",
          "153013.546000",
          "153013.546000",
          "153013.546000",
          "153013.546000",
          "153013.562000",
          "153013.562000",
          "153013.562000",
          "153013.562000",
          "153013.562000",
          "153013.562000",
          "153013.562000",
          "153013.562000",
          "153053.531000",
          "153053.531000",
          "153053.531000",
          "153053.531000",
          "153053.531000",
          "153053.531000",
          "153053.531000",
          "153053.546000",
          "153053.546000",
          "153053.546000",
          "153053.546000",
          "153053.546000",
          "153053.546000",
          "153053.546000",
          "153053.546000",
          "153053.562000",
          "153053.562000",
          "153053.562000",
          "153053.562000",
          "153053.562000",
          "153133.531000",
          "153133.531000",
          "153133.531000",
          "153133.531000",
          "153133.531000",
          "153133.531000",
          "153133.531000",
          "153133.546000",
          "153133.546000",
          "153133.546000",
          "153133.546000",
          "153133.546000",
          "153133.546000",
          "153133.546000",
          "153133.546000",
          "153133.562000",
          "153133.562000",
          "153133.562000",
          "153133.562000",
          "153133.562000",
          "153213.531000",
          "153213.531000",
          "153213.531000",
          "153213.531000",
          "153213.531000",
          "153213.531000",
          "153213.531000",
          "153213.546000",
          "153213.546000",
          "153213.546000",
          "153213.546000",
          "153213.546000",
          "153213.546000",
          "153213.546000",
          "153213.546000",
          "153213.562000",
          "153213.562000",
          "153213.562000",
          "153213.562000",
          "153213.562000",
          "153253.531000",
          "153253.531000",
          "153253.531000",
          "153253.531000",
          "153253.531000",
          "153253.531000",
          "153253.531000",
          "153253.546000",
          "153253.546000",
          "153253.546000",
          "153253.546000",
          "153253.546000",
          "153253.546000",
          "153253.546000",
          "153253.546000",
          "153253.562000",
          "153253.562000",
          "153253.562000",
          "153253.562000",
          "153253.562000",
          "153313.531000",
          "153313.531000",
          "153313.531000",
          "153313.531000",
          "153313.531000",
          "153313.531000",
          "153313.531000",
          "153313.531000",
          "153313.546000",
          "153313.546000",
          "153353.531000",
          "153353.531000",
          "153353.531000",
          "153353.531000",
          "153353.531000",
          "153353.531000",
          "153353.531000",
          "153353.531000",
          "153353.546000",
          "153353.546000",
          "153353.546000",
          "153353.546000",
          "153353.546000",
          "153353.546000",
          "153353.546000",
          "153353.562000",
          "153353.562000",
          "153353.562000",
          "153353.562000",
          "153353.562000",
          "153433.531000",
          "153433.531000",
          "153433.531000",
          "153433.531000",
          "153433.531000",
          "153433.531000",
          "153433.531000",
          "153433.546000",
          "153433.546000",
          "153433.546000",
          "153433.546000",
          "153433.546000",
          "153433.546000",
          "153433.546000",
          "153433.546000",
          "153433.562000",
          "153433.562000",
          "153433.562000",
          "153433.562000",
          "153433.562000",
          "153513.531000",
          "153513.531000",
          "153513.531000",
          "153513.531000",
          "153513.531000",
          "153513.531000",
          "153513.531000",
          "153513.531000",
          "153513.546000",
          "153513.546000",
          "153513.546000",
          "153513.546000",
          "153513.546000",
          "153513.546000",
          "153513.546000",
          "153513.562000",
          "153513.562000",
          "153513.562000",
          "153513.562000",
          "153513.562000",
          "153553.531000",
          "153553.531000",
          "153553.531000",
          "153553.531000",
          "153553.531000",
          "153553.531000",
          "153553.531000",
          "153553.531000",
          "153553.546000",
          "153553.546000",
          "153553.546000",
          "153553.546000",
          "153553.546000",
          "153553.546000",
          "153553.546000",
          "153553.562000",
          "153553.562000",
          "153553.562000",
          "153553.562000",
          "153553.562000",
          "153633.531000",
          "153633.531000",
          "153633.531000",
          "153633.531000",
          "153633.531000",
          "153633.531000",
          "153633.531000",
          "153633.531000",
          "153633.546000",
          "153633.546000",
          "153633.546000",
          "153633.546000",
          "153633.546000",
          "153633.546000",
          "153633.546000",
          "153633.562000",
          "153633.562000",
          "153633.562000",
          "153633.562000",
          "153633.562000",
          "153713.531000",
          "153713.531000",
          "153713.531000",
          "153713.531000",
          "153713.531000",
          "153713.531000",
          "153713.531000",
          "153713.531000",
          "153713.546000",
          "153713.546000",
          "153713.546000",
          "153713.546000",
          "153713.546000",
          "153713.546000",
