{
  "aor": 0.0009386192468619247,
  "aqi": 0.02147023389121339,
  "bids_meta": {
    "AcquisitionMatrixPE": 68,
    "AcquisitionNumber": 1,
    "AcquisitionTime": "16:19:55.525000",
    "BandwidthPerPixelPhaseEncode": 31.289,
    "BaseResolution": 68,
    "CogAtlasID": "TODO",
    "CoilString": "C:HEA;HEP",
    "ConversionSoftware": "dcm2niix",
    "ConversionSoftwareVersion": "v1.0.20190902",
    "DerivedVendorReportedEchoSpacing": 0.000470002,
    "DeviceSerialNumber": "35450",
    "DwellTime": 3e-06,
    "EchoTime": 0.023,
    "EffectiveEchoSpacing": 0.000470002,
    "FlipAngle": 76,
    "ImageOrientationPatientDICOM": [
      1,
      0,
      0,
      0,
      0.996041,
      0.0888943
    ],
    "ImageType": [
      "ORIGINAL",
      "PRIMARY",
      "M",
      "ND",
      "MOSAIC"
    ],
    "ImagingFrequency": 123.219,
    "InPlanePhaseEncodingDirectionDICOM": "COL",
    "InstitutionAddress": "Univeristy_Ave._197_Newark_North_East_US_07102-1814",
    "InstitutionName": "RUBIC",
    "InstitutionalDepartmentName": "Department",
    "MRAcquisitionType": "2D",
    "MagneticFieldStrength": 3,
    "Manufacturer": "Siemens",
    "ManufacturersModelName": "TrioTim",
    "Modality": "MR",
    "PartialFourier": 1,
    "PatientPosition": "HFS",
    "PercentPhaseFOV": 100,
    "PhaseEncodingDirection": "j-",
    "PhaseEncodingSteps": 68,
    "PhaseResolution": 1,
    "PixelBandwidth": 2451,
    "ProcedureStepDescription": "Krekelberg_David",
    "ProtocolName": "ep2d_bold_RestEPI_4",
    "PulseSequenceDetails": "%SiemensSeq%_ep2d_bold",
    "ReceiveCoilName": "HeadMatrix",
    "ReconMatrixPE": 68,
    "RepetitionTime": 2,
    "SAR": 0.203236,
    "ScanOptions": "FS",
    "ScanningSequence": "EP",
    "SequenceName": "_epfid2d1_68",
    "SequenceVariant": "SK",
    "SeriesDescription": "ep2d_bold_RestEPI_4",
    "SeriesNumber": 11,
    "ShimSetting": [
      1936,
      -713,
      -7555,
      640,
      136,
      -102,
      113,
      -52
    ],
    "SliceThickness": 2.5,
    "SliceTiming": [
      1.95,
      1.895,
      1.84,
      1.7825,
      1.7275,
      1.6725,
      1.615,
      1.56,
      1.505,
      1.45,
      1.3925,
      1.3375,
      1.2825,
      1.225,
      1.17,
      1.115,
      1.0575,
      1.0025,
      0.9475,
      0.89,
      0.835,
      0.78,
      0.725,
      0.6675,
      0.6125,
      0.5575,
      0.5,
      0.445,
      0.39,
      0.3325,
      0.2775,
      0.2225,
      0.1675,
      0.11,
      0.055,
      0
    ],
    "SoftwareVersions": "syngo_MR_B19",
    "SpacingBetweenSlices": 3,
    "StationName": "MRC35450",
    "TaskName": "rest",
    "TotalReadoutTime": 0.0314901,
    "TxRefAmp": 378.862,
    "dataset": "<unset>",
    "dcmmeta_affine": [
      [
        -3.0,
        0.0,
        0.0,
        101.32203674316406
      ],
      [
        0.0,
        2.9881231784820557,
        0.26668286323547363,
        -68.69874572753906
      ],
      [
        0.0,
        -0.266682893037796,
        2.9881231784820557,
        -31.28822898864746
      ],
      [
        0.0,
        0.0,
        0.0,
        1.0
      ]
    ],
    "dcmmeta_reorient_transform": [
      [
        0.0,
        -1.0,
        0.0,
        67.0
      ],
      [
        1.0,
        0.0,
        0.0,
        0.0
      ],
      [
        0.0,
        0.0,
        1.0,
        0.0
      ],
      [
        0.0,
        0.0,
        0.0,
        1.0
      ]
    ],
    "dcmmeta_shape": [
      68,
      68,
      36,
      240
    ],
    "dcmmeta_slice_dim": 2,
    "dcmmeta_version": 0.6,
    "global": {
      "const": {
        "AcquisitionMatrix": [
          68,
          0,
          0,
          68
        ],
        "AngioFlag": "N",
        "BitsAllocated": 16,
        "BitsStored": 12,
        "Columns": 408,
        "EchoNumbers": 1,
        "EchoTime": 23.0,
        "EchoTrainLength": 1,
        "FlipAngle": 76.0,
        "HighBit": 11,
        "ImageOrientationPatient": [
          1.0,
          0.0,
          0.0,
          0.0,
          0.99604106564855,
          0.08889429420219
        ],
        "ImagePositionPatient": [
          -611.32203388214,
          -639.48645300821,
          -94.492072242413
        ],
        "ImageType": [
          "ORIGINAL",
          "PRIMARY",
          "M",
          "ND",
          "MOSAIC"
        ],
        "ImagedNucleus": "1H",
        "ImagingFrequency": 123.218592,
        "InPlanePhaseEncodingDirection": "COL",
        "MRAcquisitionType": "2D",
        "MagneticFieldStrength": 3.0,
        "Manufacturer": "SIEMENS",
        "ManufacturerModelName": "TrioTim",
        "Modality": "MR",
        "NumberOfAverages": 1.0,
        "NumberOfPhaseEncodingSteps": 68,
        "PercentPhaseFieldOfView": 100.0,
        "PercentSampling": 100.0,
        "PerformedProcedureStepStartTime": "150344.265000",
        "PhotometricInterpretation": "MONOCHROME2",
        "PixelBandwidth": 2451.0,
        "PixelRepresentation": 0,
        "PixelSpacing": [
          3.0,
          3.0
        ],
        "ProtocolName": "ep2d_bold_RestEPI_4",
        "RepetitionTime": 2000.0,
        "Rows": 408,
        "SAR": 0.20323609203813,
        "SamplesPerPixel": 1,
        "ScanOptions": "FS",
        "ScanningSequence": "EP",
        "SequenceName": "*epfid2d1_68",
        "SequenceVariant": "SK",
        "SeriesDescription": "ep2d_bold_RestEPI_4",
        "SeriesNumber": 11,
        "SeriesTime": "162053.953000",
        "SliceLocation": -37.271287439647,
        "SliceThickness": 2.5,
        "SmallestImagePixelValue": 0,
        "SoftwareVersions": "syngo MR B19",
        "SpacingBetweenSlices": 2.9999999058582,
        "SpecificCharacterSet": "ISO_IR 100",
        "StudyID": "1",
        "StudyTime": "150344.218000",
        "TransmitCoilName": "Body",
        "VariableFlipAngleFlag": "N",
        "WindowCenterWidthExplanation": "Algo1",
        "dBdt": 0.0
      },
      "slices": {}
    },
    "modality": "bold",
    "run_id": 4,
    "subject_id": "217",
    "task_id": "rest",
    "time": {
      "samples": {
        "AcquisitionNumber": [
          1,
          2,
          3,
          4,
          5,
          6,
          7,
          8,
          9,
          10,
          11,
          12,
          13,
          14,
          15,
          16,
          17,
          18,
          19,
          20,
          21,
          22,
          23,
          24,
          25,
          26,
          27,
          28,
          29,
          30,
          31,
          32,
          33,
          34,
          35,
          36,
          37,
          38,
          39,
          40,
          41,
          42,
          43,
          44,
          45,
          46,
          47,
          48,
          49,
          50,
          51,
          52,
          53,
          54,
          55,
          56,
          57,
          58,
          59,
          60,
          61,
          62,
          63,
          64,
          65,
          66,
          67,
          68,
          69,
          70,
          71,
          72,
          73,
          74,
          75,
          76,
          77,
          78,
          79,
          80,
          81,
          82,
          83,
          84,
          85,
          86,
          87,
          88,
          89,
          90,
          91,
          92,
          93,
          94,
          95,
          96,
          97,
          98,
          99,
          100,
          101,
          102,
          103,
          104,
          105,
          106,
          107,
          108,
          109,
          110,
          111,
          112,
          113,
          114,
          115,
          116,
          117,
          118,
          119,
          120,
          121,
          122,
          123,
          124,
          125,
          126,
          127,
          128,
          129,
          130,
          131,
          132,
          133,
          134,
          135,
          136,
          137,
          138,
          139,
          140,
          141,
          142,
          143,
          144,
          145,
          146,
          147,
          148,
          149,
          150,
          151,
          152,
          153,
          154,
          155,
          156,
          157,
          158,
          159,
          160,
          161,
          162,
          163,
          164,
          165,
          166,
          167,
          168,
          169,
          170,
          171,
          172,
          173,
          174,
          175,
          176,
          177,
          178,
          179,
          180,
          181,
          182,
          183,
          184,
          185,
          186,
          187,
          188,
          189,
          190,
          191,
          192,
          193,
          194,
          195,
          196,
          197,
          198,
          199,
          200,
          201,
          202,
          203,
          204,
          205,
          206,
          207,
          208,
          209,
          210,
          211,
          212,
          213,
          214,
          215,
          216,
          217,
          218,
          219,
          220,
          221,
          222,
          223,
          224,
          225,
          226,
          227,
          228,
          229,
          230,
          231,
          232,
          233,
          234,
          235,
          236,
          237,
          238,
          239,
          240
        ],
        "AcquisitionTime": [
          "161955.525000",
          "161957.532500",
          "161959.542500",
          "162001.550000",
          "162003.557500",
          "162005.565000",
          "162007.575000",
          "162009.582500",
          "162011.590000",
          "162013.597500",
          "162015.605000",
          "162017.615000",
          "162019.622500",
          "162021.630000",
          "162023.637500",
          "162025.645000",
          "162027.655000",
          "162029.662500",
          "162031.670000",
          "162033.677500",
          "162035.687500",
          "162037.695000",
          "162039.702500",
          "162041.710000",
          "162043.717500",
          "162045.727500",
          "162047.735000",
          "162049.742500",
          "162051.750000",
          "162053.757500",
          "162055.767500",
          "162057.775000",
          "162059.782500",
          "162101.790000",
          "162103.800000",
          "162105.807500",
          "162107.815000",
          "162109.822500",
          "162111.830000",
          "162113.840000",
          "162115.847500",
          "162117.855000",
          "162119.862500",
          "162121.870000",
          "162123.880000",
          "162125.887500",
          "162127.895000",
          "162129.902500",
          "162131.910000",
          "162133.920000",
          "162135.927500",
          "162137.935000",
          "162139.942500",
          "162141.952500",
          "162143.960000",
          "162145.967500",
          "162147.975000",
          "162149.982500",
          "162151.992500",
          "162154.000000",
          "162156.007500",
          "162158.015000",
          "162200.022500",
          "162202.032500",
          "162204.040000",
          "162206.047500",
          "162208.055000",
          "162210.065000",
          "162212.072500",
          "162214.080000",
          "162216.087500",
          "162218.095000",
          "162220.105000",
          "162222.112500",
          "162224.120000",
          "162226.127500",
          "162228.135000",
          "162230.145000",
          "162232.152500",
          "162234.160000",
          "162236.167500",
          "162238.177500",
          "162240.185000",
          "162242.192500",
          "162244.200000",
          "162246.207500",
          "162248.217500",
          "162250.225000",
          "162252.232500",
          "162254.240000",
          "162256.247500",
          "162258.257500",
          "162300.265000",
          "162302.272500",
          "162304.280000",
          "162306.287500",
          "162308.297500",
          "162310.305000",
          "162312.312500",
          "162314.320000",
          "162316.330000",
          "162318.337500",
          "162320.345000",
          "162322.352500",
          "162324.360000",
          "162326.370000",
          "162328.377500",
          "162330.385000",
          "162332.392500",
          "162334.400000",
          "162336.410000",
          "162338.417500",
          "162340.425000",
          "162342.432500",
          "162344.442500",
          "162346.450000",
          "162348.457500",
          "162350.465000",
          "162352.472500",
          "162354.482500",
          "162356.490000",
          "162358.497500",
          "162400.505000",
          "162402.512500",
          "162404.522500",
          "162406.530000",
          "162408.537500",
          "162410.545000",
          "162412.555000",
          "162414.562500",
          "162416.570000",
          "162418.577500",
          "162420.585000",
          "162422.595000",
          "162424.602500",
          "162426.610000",
          "162428.617500",
          "162430.625000",
          "162432.635000",
          "162434.642500",
          "162436.650000",
          "162438.657500",
          "162440.667500",
          "162442.675000",
          "162444.682500",
          "162446.690000",
          "162448.697500",
          "162450.707500",
          "162452.715000",
          "162454.722500",
          "162456.730000",
          "162458.737500",
          "162500.747500",
          "162502.755000",
          "162504.762500",
          "162506.770000",
          "162508.777500",
          "162510.787500",
          "162512.795000",
          "162514.802500",
          "162516.810000",
          "162518.820000",
          "162520.827500",
          "162522.835000",
          "162524.842500",
          "162526.850000",
          "162528.860000",
          "162530.867500",
          "162532.875000",
          "162534.882500",
          "162536.890000",
          "162538.900000",
          "162540.907500",
          "162542.915000",
          "162544.922500",
          "162546.932500",
          "162548.940000",
          "162550.947500",
          "162552.955000",
          "162554.962500",
          "162556.972500",
          "162558.980000",
          "162600.987500",
          "162602.995000",
          "162605.002500",
          "162607.012500",
          "162609.020000",
          "162611.027500",
          "162613.035000",
          "162615.045000",
          "162617.052500",
          "162619.060000",
          "162621.067500",
          "162623.075000",
          "162625.085000",
          "162627.092500",
          "162629.100000",
          "162631.107500",
          "162633.115000",
          "162635.125000",
          "162637.132500",
          "162639.140000",
          "162641.147500",
          "162643.155000",
          "162645.165000",
          "162647.172500",
          "162649.180000",
          "162651.187500",
          "162653.197500",
          "162655.205000",
          "162657.212500",
          "162659.220000",
          "162701.227500",
          "162703.237500",
          "162705.245000",
          "162707.252500",
          "162709.260000",
          "162711.267500",
          "162713.277500",
          "162715.285000",
          "162717.292500",
          "162719.300000",
          "162721.310000",
          "162723.317500",
          "162725.325000",
          "162727.332500",
          "162729.340000",
          "162731.350000",
          "162733.357500",
          "162735.365000",
          "162737.372500",
          "162739.380000",
          "162741.390000",
          "162743.397500",
          "162745.405000",
          "162747.412500",
          "162749.422500",
          "162751.430000",
          "162753.437500",
          "162755.445000"
        ],
        "ContentTime": [
          "162053.953000",
          "162053.953000",
          "162053.953000",
          "162053.953000",
          "162053.953000",
          "162053.968000",
          "162053.968000",
          "162053.968000",
          "162053.968000",
          "162053.968000",
          "162053.968000",
          "162053.968000",
          "162053.984000",
          "162053.984000",
          "162053.984000",
          "162053.984000",
          "162053.984000",
          "162053.984000",
          "162053.984000",
          "162053.984000",
          "162054.000000",
          "162054.000000",
          "162054.000000",
          "162054.000000",
          "162054.000000",
          "162054.000000",
          "162054.000000",
          "162054.000000",
          "162054.015000",
          "162133.953000",
          "162133.953000",
          "162133.953000",
          "162133.953000",
          "162133.953000",
          "162133.953000",
          "162133.953000",
          "162133.968000",
          "162133.968000",
          "162133.968000",
          "162133.968000",
          "162133.968000",
          "162133.968000",
          "162133.968000",
          "162133.968000",
          "162133.984000",
          "162133.984000",
          "162133.984000",
          "162133.984000",
          "162133.984000",
          "162213.953000",
          "162213.953000",
          "162213.953000",
          "162213.953000",
          "162213.953000",
          "162213.953000",
          "162213.953000",
          "162213.968000",
          "162213.968000",
          "162213.968000",
          "162213.968000",
          "162213.968000",
          "162213.968000",
          "162213.968000",
          "162213.968000",
          "162213.984000",
          "162213.984000",
          "162213.984000",
          "162213.984000",
          "162213.984000",
          "162253.953000",
          "162253.953000",
          "162253.953000",
          "162253.953000",
          "162253.953000",
          "162253.953000",
          "162253.953000",
          "162253.968000",
          "162253.968000",
          "162253.968000",
          "162253.968000",
          "162253.968000",
          "162253.968000",
          "162253.968000",
          "162253.968000",
          "162253.984000",
          "162253.984000",
          "162253.984000",
          "162253.984000",
          "162253.984000",
          "162313.953000",
          "162313.953000",
          "162313.953000",
          "162313.953000",
          "162313.953000",
          "162313.953000",
          "162313.953000",
          "162313.968000",
          "162313.968000",
          "162313.968000",
          "162353.953000",
          "162353.953000",
          "162353.953000",
          "162353.953000",
          "162353.953000",
          "162353.953000",
          "162353.953000",
          "162353.968000",
          "162353.968000",
          "162353.968000",
          "162353.968000",
          "162353.968000",
          "162353.968000",
          "162353.968000",
          "162353.968000",
          "162353.984000",
          "162353.984000",
          "162353.984000",
          "162353.984000",
          "162353.984000",
          "162433.953000",
          "162433.953000",
          "162433.953000",
          "162433.953000",
          "162433.953000",
          "162433.953000",
          "162433.953000",
          "162433.968000",
          "162433.968000",
          "162433.968000",
          "162433.968000",
          "162433.968000",
          "162433.968000",
          "162433.968000",
          "162433.984000",
          "162433.984000",
          "162433.984000",
          "162433.984000",
          "162433.984000",
          "162433.984000",
          "162513.953000",
          "162513.953000",
          "162513.953000",
          "162513.953000",
          "162513.953000",
          "162513.953000",
          "162513.953000",
          "162513.968000",
          "162513.968000",
          "162513.968000",
          "162513.968000",
          "162513.968000",
          "162513.968000",
          "162513.968000",
          "162513.968000",
          "162513.984000",
          "162513.984000",
          "162513.984000",
          "162513.984000",
          "162513.984000",
          "162553.953000",
          "162553.953000",
          "162553.953000",
          "162553.953000",
          "162553.953000",
          "162553.953000",
          "162553.953000",
          "162553.968000",
          "162553.968000",
          "162553.968000",
          "162553.968000",
          "162553.968000",
          "162553.968000",
          "162553.968000",
          "162553.968000",
          "162553.984000",
          "162553.984000",
          "162553.984000",
          "162553.984000",
          "162553.984000",
          "162633.953000",
          "162633.953000",
          "162633.953000",
          "162633.953000",
          "162633.953000",
          "162633.953000",
          "162633.953000",
          "162633.968000",
          "162633.968000",
          "162633.968000",
          "162633.968000",
          "162633.968000",
          "162633.968000",
          "162633.968000",
          "162633.984000",
          "162633.984000",
          "162633.984000",
          "162633.984000",
          "162633.984000",
          "162633.984000",
          "162713.953000",
          "162713.953000",
          "162713.953000",
          "162713.953000",
          "162713.953000",
          "162713.953000",
          "162713.953000",
          "162713.968000",
          "162713.968000",
          "162713.968000",
          "162713.968000",
          "162713.968000",
          "162713.968000",
          "162713.968000",
          "162713.968000",
          "162713.984000",
          "162713.984000",
          "162713.984000",
          "162713.984000",
          "162713.984000",
          "162753.953000",
          "162753.953000",
          "162753.953000",
          "162753.953000",
          "162753.953000",
          "162753.953000",
          "162753.953000",
          "162753.968000",
          "162753.968000",
          "162753.968000",
          "162753.968000",
          "162753.968000",
          "162753.968000",
          "162753.968000",
          "162753.968000",
          "162753.984000",
          "162753.984000",
          "162753.984000",
          "162753.984000",
          "162753.984000",
          "162754.484000"
        ],
        "InstanceCreationTime": [
          "162053.953000",
          "162053.953000",
          "162053.953000",
          "162053.953000",
          "162053.953000",
          "162053.968000",
          "162053.968000",
          "162053.968000",
          "162053.968000",
          "162053.968000",
          "162053.968000",
          "162053.968000",
          "162053.984000",
          "162053.984000",
          "162053.984000",
          "162053.984000",
          "162053.984000",
          "162053.984000",
          "162053.984000",
          "162053.984000",
          "162054.000000",
          "162054.000000",
          "162054.000000",
          "162054.000000",
          "162054.000000",
          "162054.000000",
          "162054.000000",
          "162054.000000",
          "162054.015000",
          "162133.953000",
          "162133.953000",
          "162133.953000",
          "162133.953000",
          "162133.953000",
          "162133.953000",
          "162133.953000",
          "162133.968000",
          "162133.968000",
          "162133.968000",
          "162133.968000",
          "162133.968000",
          "162133.968000",
          "162133.968000",
          "162133.968000",
          "162133.984000",
          "162133.984000",
          "162133.984000",
          "162133.984000",
          "162133.984000",
          "162213.953000",
          "162213.953000",
          "162213.953000",
          "162213.953000",
          "162213.953000",
          "162213.953000",
          "162213.953000",
          "162213.968000",
          "162213.968000",
          "162213.968000",
          "162213.968000",
          "162213.968000",
          "162213.968000",
          "162213.968000",
          "162213.968000",
          "162213.984000",
          "162213.984000",
          "162213.984000",
          "162213.984000",
          "162213.984000",
          "162253.953000",
          "162253.953000",
          "162253.953000",
          "162253.953000",
          "162253.953000",
          "162253.953000",
          "162253.953000",
          "162253.968000",
          "162253.968000",
          "162253.968000",
          "162253.968000",
          "162253.968000",
          "162253.968000",
          "162253.968000",
          "162253.968000",
          "162253.984000",
          "162253.984000",
          "162253.984000",
          "162253.984000",
          "162253.984000",
          "162313.953000",
          "162313.953000",
          "162313.953000",
          "162313.953000",
          "162313.953000",
          "162313.953000",
          "162313.953000",
          "162313.968000",
          "162313.968000",
          "162313.968000",
          "162353.953000",
          "162353.953000",
          "162353.953000",
          "162353.953000",
          "162353.953000",
          "162353.953000",
          "162353.953000",
          "162353.968000",
          "162353.968000",
          "162353.968000",
          "162353.968000",
          "162353.968000",
          "162353.968000",
          "162353.968000",
          "162353.968000",
          "162353.984000",
          "162353.984000",
          "162353.984000",
          "162353.984000",
          "162353.984000",
          "162433.953000",
          "162433.953000",
          "162433.953000",
          "162433.953000",
          "162433.953000",
          "162433.953000",
          "162433.953000",
          "162433.968000",
          "162433.968000",
          "162433.968000",
          "162433.968000",
          "162433.968000",
          "162433.968000",
          "162433.968000",
          "162433.984000",
          "162433.984000",
          "162433.984000",
          "162433.984000",
          "162433.984000",
          "162433.984000",
          "162513.953000",
          "162513.953000",
          "162513.953000",
          "162513.953000",
          "162513.953000",
          "162513.953000",
          "162513.953000",
          "162513.968000",
          "162513.968000",
          "162513.968000",
          "162513.968000",
          "162513.968000",
          "162513.968000",
          "162513.968000",
          "162513.968000",
          "162513.984000",
          "162513.984000",
          "162513.984000",
          "162513.984000",
          "162513.984000",
          "162553.953000",
          "162553.953000",
          "162553.953000",
          "162553.953000",
          "162553.953000",
          "162553.953000",
          "162553.953000",
          "162553.968000",
          "162553.968000",
          "162553.968000",
          "162553.968000",
          "162553.968000",
          "162553.968000",
          "162553.968000",
          "162553.968000",
          "162553.984000",
          "162553.984000",
          "162553.984000",
          "162553.984000",
          "162553.984000",
          "162633.953000",
          "162633.953000",
          "162633.953000",
          "162633.953000",
          "162633.953000",
          "162633.953000",
          "162633.953000",
          "162633.968000",
          "162633.968000",
          "162633.968000",
          "162633.968000",
          "162633.968000",
          "162633.968000",
          "162633.968000",
          "162633.984000",
          "162633.984000",
          "162633.984000",
          "162633.984000",
          "162633.984000",
          "162633.984000",
          "162713.953000",
          "162713.953000",
          "162713.953000",
          "162713.953000",
          "162713.953000",
          "162713.953000",
          "162713.953000",
          "162713.968000",
          "162713.968000",
          "162713.968000",
          "162713.968000",
          "162713.968000",
          "162713.968000",
          "162713.968000",
          "162713.968000",
          "162713.984000",
          "162713.984000",
          "162713.984000",
          "162713.984000",
          "162713.984000",
          "162753.953000",
          "162753.953000",
          "162753.953000",
          "162753.953000",
          "162753.953000",
          "162753.953000",
          "162753.953000",
          "162753.968000",
          "162753.968000",
          "162753.968000",
          "162753.968000",
          "162753.968000",
          "162753.968000",
          "162753.968000",
          "162753.968000",
          "162753.984000",
          "162753.984000",
          "162753.984000",
          "162753.984000",
          "162753.984000",
          "162754.484000"
        ],
        "InstanceNumber": [
          1,
          2,
          3,
          4,
          5,
          6,
          7,
          8,
          9,
          10,
          11,
          12,
          13,
          14,
          15,
          16,
          17,
          18,
          19,
          20,
          21,
          22,
          23,
          24,
          25,
          26,
          27,
          28,
          29,
          30,
          31,
          32,
          33,
          34,
          35,
          36,
          37,
          38,
          39,
          40,
          41,
          42,
          43,
          44,
          45,
          46,
          47,
          48,
          49,
          50,
          51,
          52,
          53,
          54,
          55,
          56,
          57,
          58,
