{
    "AcquisitionMatrixPE": 68, 
    "AcquisitionNumber": 1, 
    "AcquisitionTime": "09:20:54.905000", 
    "BaseResolution": 68, 
    "CoilString": "C:HEA;HEP", 
    "ConversionSoftware": "dcm2niix", 
    "ConversionSoftwareVersion": "v1.0.20190902", 
    "DeviceSerialNumber": "35450", 
    "DwellTime": 2.82e-05, 
    "EchoNumber": 2, 
    "EchoTime": 0.00765, 
    "EchoTime1": 0.00519, 
    "EchoTime2": 0.00765, 
    "FlipAngle": 60, 
    "ImageOrientationPatientDICOM": [
        1, 
        0, 
        0, 
        0, 
        0.991894, 
        -0.127065
    ], 
    "ImageType": [
        "ORIGINAL", 
        "PRIMARY", 
        "P", 
        "ND"
    ], 
    "ImagingFrequency": 123.219, 
    "InPlanePhaseEncodingDirectionDICOM": "COL", 
    "InstitutionAddress": "Univeristy_Ave._197_Newark_North_East_US_07102-1814", 
    "InstitutionName": "RUBIC", 
    "InstitutionalDepartmentName": "Department", 
    "IntendedFor": [
        "func/sub-207_task-rest_run-01_bold.nii.gz", 
        "func/sub-207_task-cardgame_run-02_bold.nii.gz", 
        "func/sub-207_task-rest_run-04_bold.nii.gz", 
        "func/sub-207_task-rest_run-03_bold.nii.gz", 
        "func/sub-207_task-cardgame_run-01_bold.nii.gz", 
        "func/sub-207_task-rest_run-02_bold.nii.gz"
    ], 
    "MRAcquisitionType": "2D", 
    "MagneticFieldStrength": 3, 
    "Manufacturer": "Siemens", 
    "ManufacturersModelName": "TrioTim", 
    "Modality": "MR", 
    "PartialFourier": 1, 
    "PatientPosition": "HFS", 
    "PercentPhaseFOV": 100, 
    "PhaseEncodingDirection": "j-", 
    "PhaseEncodingSteps": 68, 
    "PhaseResolution": 1, 
    "PixelBandwidth": 261, 
    "ProcedureStepDescription": "Krekelberg_David", 
    "ProtocolName": "gre_field_mapping", 
    "PulseSequenceDetails": "%SiemensSeq%_gre_field_mapping", 
    "ReceiveCoilName": "HeadMatrix", 
    "ReconMatrixPE": 68, 
    "RepetitionTime": 0.402, 
    "SAR": 0.24668, 
    "ScanningSequence": "GR", 
    "SequenceName": "_fm2d2r", 
    "SequenceVariant": "SP", 
    "SeriesDescription": "gre_field_mapping", 
    "SeriesNumber": 4, 
    "ShimSetting": [
        1969, 
        -704, 
        -7668, 
        586, 
        177, 
        -87, 
        -24, 
        52
    ], 
    "SliceThickness": 2.5, 
    "SliceTiming": [
        0.20312, 
        0, 
        0.21094, 
        0.01562, 
        0.22656, 
        0.02344, 
        0.23438, 
        0.03125, 
        0.25, 
        0.04688, 
        0.25781, 
        0.05469, 
        0.26562, 
        0.07031, 
        0.28125, 
        0.07812, 
        0.28906, 
        0.08594, 
        0.30469, 
        0.10156, 
        0.3125, 
        0.10938, 
        0.32812, 
        0.125, 
        0.33594, 
        0.13281, 
        0.34375, 
        0.14844, 
        0.35938, 
        0.15625, 
        0.36719, 
        0.17188, 
        0.38281, 
        0.17969, 
        0.39062, 
        0.19531
    ], 
    "SoftwareVersions": "syngo_MR_B19", 
    "SpacingBetweenSlices": 3, 
    "StationName": "MRC35450", 
    "TxRefAmp": 306.343, 
    "dcmmeta_affine": [
        [
            -3.0, 
            0.0, 
            0.0, 
            97.93220520019531
        ], 
        [
            0.0, 
            2.9756832122802734, 
            -0.38119375705718994, 
            -86.1029281616211
        ], 
        [
            0.0, 
            0.3811938464641571, 
            2.9756851196289062, 
            -40.92509841918945
        ], 
        [
            0.0, 
            0.0, 
            0.0, 
            1.0
        ]
    ], 
    "dcmmeta_reorient_transform": [
        [
            0.0, 
            -1.0, 
            0.0, 
            67.0
        ], 
        [
            1.0, 
            0.0, 
            0.0, 
            0.0
        ], 
        [
            0.0, 
            0.0, 
            -1.0, 
            35.0
        ], 
        [
            0.0, 
            0.0, 
            0.0, 
            1.0
        ]
    ], 
    "dcmmeta_shape": [
        68, 
        68, 
        36
    ], 
    "dcmmeta_slice_dim": 2, 
    "dcmmeta_version": 0.6, 
    "global": {
        "const": {
            "AcquisitionMatrix": [
                68, 
                0, 
                0, 
                68
            ], 
            "AcquisitionNumber": 1, 
            "AngioFlag": "N", 
            "BitsAllocated": 16, 
            "BitsStored": 12, 
            "Columns": 68, 
            "EchoNumbers": 2, 
            "EchoTime": 7.65, 
            "EchoTrainLength": 1, 
            "FlipAngle": 60.0, 
            "HighBit": 11, 
            "ImageOrientationPatient": [
                1.0, 
                0.0, 
                0.0, 
                0.0, 
                0.99189444198249, 
                -0.1270646133439
            ], 
            "ImageType": [
                "ORIGINAL", 
                "PRIMARY", 
                "P", 
                "ND"
            ], 
            "ImagedNucleus": "1H", 
            "ImagingFrequency": 123.218631, 
            "InPlanePhaseEncodingDirection": "COL", 
            "MRAcquisitionType": "2D", 
            "MagneticFieldStrength": 3.0, 
            "Manufacturer": "SIEMENS", 
            "ManufacturerModelName": "TrioTim", 
            "Modality": "MR", 
            "NumberOfAverages": 1.0, 
            "NumberOfPhaseEncodingSteps": 68, 
            "PercentPhaseFieldOfView": 100.0, 
            "PercentSampling": 100.0, 
            "PerformedProcedureStepStartTime": "085940.593000", 
            "PhotometricInterpretation": "MONOCHROME2", 
            "PixelBandwidth": 261.0, 
            "PixelRepresentation": 0, 
            "PixelSpacing": [
                3.0, 
                3.0
            ], 
            "ProtocolName": "gre_field_mapping", 
            "RepetitionTime": 402.0, 
            "RescaleIntercept": -4096.0, 
            "RescaleSlope": 2.0, 
            "RescaleType": "US", 
            "Rows": 68, 
            "SAR": 0.24667978991876, 
            "SamplesPerPixel": 1, 
            "ScanningSequence": "GR", 
            "SequenceName": "*fm2d2r", 
            "SequenceVariant": "SP", 
            "SeriesDescription": "gre_field_mapping", 
            "SeriesNumber": 4, 
            "SeriesTime": "092155.734000", 
            "SliceThickness": 2.5, 
            "SoftwareVersions": "syngo MR B19", 
            "SpacingBetweenSlices": 3.0, 
            "SpecificCharacterSet": "ISO_IR 100", 
            "StudyID": "1", 
            "StudyTime": "085940.562000", 
            "TransmitCoilName": "Body", 
            "VariableFlipAngleFlag": "N", 
            "WindowCenterWidthExplanation": "Algo1", 
            "dBdt": 0.0
        }, 
        "slices": {
            "AcquisitionTime": [
                "092054.905000", 
                "092054.702500", 
                "092054.917500", 
                "092054.715000", 
                "092054.927500", 
                "092054.725000", 
                "092054.940000", 
                "092054.737500", 
                "092054.950000", 
                "092054.747500", 
                "092054.962500", 
                "092054.760000", 
                "092054.972500", 
                "092054.770000", 
                "092054.985000", 
                "092054.782500", 
                "092054.995000", 
                "092054.792500", 
                "092055.005000", 
                "092054.805000", 
                "092055.017500", 
                "092054.815000", 
                "092055.027500", 
                "092054.827500", 
                "092055.040000", 
                "092054.837500", 
                "092055.050000", 
                "092054.850000", 
                "092055.062500", 
                "092054.860000", 
                "092055.072500", 
                "092054.872500", 
                "092055.085000", 
                "092054.882500", 
                "092055.095000", 
                "092054.895000"
            ], 
            "ContentTime": [
                "092155.781000", 
                "092155.734000", 
                "092155.781000", 
                "092155.750000", 
                "092155.781000", 
                "092155.750000", 
                "092155.781000", 
                "092155.750000", 
                "092155.781000", 
                "092155.750000", 
                "092155.781000", 
                "092155.750000", 
                "092155.781000", 
                "092155.750000", 
                "092155.781000", 
                "092155.750000", 
                "092155.781000", 
                "092155.750000", 
                "092155.796000", 
                "092155.765000", 
                "092155.796000", 
                "092155.765000", 
                "092155.796000", 
                "092155.765000", 
                "092155.796000", 
                "092155.765000", 
                "092155.796000", 
                "092155.765000", 
                "092155.796000", 
                "092155.765000", 
                "092155.796000", 
                "092155.765000", 
                "092155.796000", 
                "092155.765000", 
                "092155.812000", 
                "092155.765000"
            ], 
            "CsaImage.ICE_Dims": [
                "X_2_1_1_1_1_1_19_1_1_1_1_737", 
                "X_2_1_1_1_1_1_1_1_1_2_1_737", 
                "X_2_1_1_1_1_1_20_1_1_3_1_737", 
                "X_2_1_1_1_1_1_2_1_1_4_1_737", 
                "X_2_1_1_1_1_1_21_1_1_5_1_737", 
                "X_2_1_1_1_1_1_3_1_1_6_1_737", 
                "X_2_1_1_1_1_1_22_1_1_7_1_737", 
                "X_2_1_1_1_1_1_4_1_1_8_1_737", 
                "X_2_1_1_1_1_1_23_1_1_9_1_737", 
                "X_2_1_1_1_1_1_5_1_1_10_1_737", 
                "X_2_1_1_1_1_1_24_1_1_11_1_737", 
                "X_2_1_1_1_1_1_6_1_1_12_1_737", 
                "X_2_1_1_1_1_1_25_1_1_13_1_737", 
                "X_2_1_1_1_1_1_7_1_1_14_1_737", 
                "X_2_1_1_1_1_1_26_1_1_15_1_737", 
                "X_2_1_1_1_1_1_8_1_1_16_1_737", 
                "X_2_1_1_1_1_1_27_1_1_17_1_737", 
                "X_2_1_1_1_1_1_9_1_1_18_1_737", 
                "X_2_1_1_1_1_1_28_1_1_19_1_737", 
                "X_2_1_1_1_1_1_10_1_1_20_1_737", 
                "X_2_1_1_1_1_1_29_1_1_21_1_737", 
                "X_2_1_1_1_1_1_11_1_1_22_1_737", 
                "X_2_1_1_1_1_1_30_1_1_23_1_737", 
                "X_2_1_1_1_1_1_12_1_1_24_1_737", 
                "X_2_1_1_1_1_1_31_1_1_25_1_737", 
                "X_2_1_1_1_1_1_13_1_1_26_1_737", 
                "X_2_1_1_1_1_1_32_1_1_27_1_737", 
                "X_2_1_1_1_1_1_14_1_1_28_1_737", 
                "X_2_1_1_1_1_1_33_1_1_29_1_737", 
                "X_2_1_1_1_1_1_15_1_1_30_1_737", 
                "X_2_1_1_1_1_1_34_1_1_31_1_737", 
                "X_2_1_1_1_1_1_16_1_1_32_1_737", 
                "X_2_1_1_1_1_1_35_1_1_33_1_737", 
                "X_2_1_1_1_1_1_17_1_1_34_1_737", 
                "X_2_1_1_1_1_1_36_1_1_35_1_737", 
                "X_2_1_1_1_1_1_18_1_1_36_1_737"
            ], 
            "CsaImage.ProtocolSliceNumber": [
                0, 
                1, 
                2, 
                3, 
                4, 
                5, 
                6, 
                7, 
                8, 
                9, 
                10, 
                11, 
                12, 
                13, 
                14, 
                15, 
                16, 
                17, 
                18, 
                19, 
                20, 
                21, 
                22, 
                23, 
                24, 
                25, 
                26, 
                27, 
                28, 
                29, 
                30, 
                31, 
                32, 
                33, 
                34, 
                35
            ], 
            "CsaImage.SliceMeasurementDuration": [
                54085.0, 
                54085.0, 
                54082.5, 
                54085.0, 
                54085.0, 
                54085.0, 
                54082.5, 
                54085.0, 
                54085.0, 
                54085.0, 
                54082.5, 
                54085.0, 
                54085.0, 
                54085.0, 
                54082.5, 
                54085.0, 
                54085.0, 
                54085.0, 
                54085.0, 
                54085.0, 
                54085.0, 
                54085.0, 
                54085.0, 
                54085.0, 
                54085.0, 
                54085.0, 
                54085.0, 
                54082.5, 
                54085.0, 
                54085.0, 
                54085.0, 
                54082.5, 
                54085.0, 
                54085.0, 
                54085.0, 
                54082.5
            ], 
            "CsaImage.SlicePosition_PCS": [
                [
                    -97.93220329, 
                    -113.26785379, 
                    -15.38505344
                ], 
                [
                    -97.93220329, 
                    -112.88666063, 
                    -12.40937022
                ], 
                [
                    -97.93220329, 
                    -112.50546651, 
                    -9.43368701
                ], 
                [
                    -97.93220329, 
                    -112.1242724, 
                    -6.4580038
                ], 
                [
                    -97.93220329, 
                    -111.74307828, 
                    -3.48232059
                ], 
                [
                    -97.93220329, 
                    -111.36188512, 
                    -0.50663642
                ], 
                [
                    -97.93220329, 
                    -110.98069101, 
                    2.46904679
                ], 
                [
                    -97.93220329, 
                    -110.59949689, 
                    5.44473
                ], 
                [
                    -97.93220329, 
                    -110.21830373, 
                    8.42041322
                ], 
                [
                    -97.93220329, 
                    -109.83710962, 
                    11.39609643
                ], 
                [
                    -97.93220329, 
                    -109.4559155, 
                    14.37177976
                ], 
                [
                    -97.93220329, 
                    -109.07472186, 
                    17.34746333
                ], 
                [
                    -97.93220329, 
                    -108.69352823, 
                    20.32314654
                ], 
                [
                    -97.93220329, 
                    -108.31233411, 
                    23.29883023
                ], 
                [
                    -97.93220329, 
                    -107.93114047, 
                    26.27451344
                ], 
                [
                    -97.93220329, 
                    -107.54994683, 
                    29.25019666
                ], 
                [
                    -97.93220329, 
                    -107.16875272, 
                    32.22587987
                ], 
                [
                    -97.93220329, 
                    -106.78755908, 
                    35.20156308
                ], 
                [
                    -97.93220329, 
                    -106.40636497, 
                    38.17724629
                ], 
                [
                    -97.93220329, 
                    -106.02517133, 
                    41.1529295
                ], 
                [
                    -97.93220329, 
                    -105.64397769, 
                    44.12861272
                ], 
                [
                    -97.93220329, 
                    -105.26278358, 
                    47.10429784
                ], 
                [
                    -97.93220329, 
                    -104.88158994, 
                    50.07997914
                ], 
                [
                    -97.93220329, 
                    -104.50039606, 
                    53.05566426
                ], 
                [
                    -97.93220329, 
                    -104.11920219, 
                    56.03134557
                ], 
                [
                    -97.93220329, 
                    -103.73800831, 
                    59.00703069
                ], 
                [
                    -97.93220329, 
                    -103.35681443, 
                    61.98271199
                ], 
                [
                    -97.93220329, 
                    -102.97562068, 
                    64.95839711
                ], 
                [
                    -97.93220329, 
                    -102.59442692, 
                    67.93407842
                ], 
                [
                    -97.93220329, 
                    -102.21323304, 
                    70.90976353
                ], 
                [
                    -97.93220329, 
                    -101.83203923, 
                    73.88544484
                ], 
                [
                    -97.93220329, 
                    -101.45084538, 
                    76.86112996
                ], 
                [
                    -97.93220329, 
                    -101.06965156, 
                    79.83681126
                ], 
                [
                    -97.93220329, 
                    -100.68845775, 
                    82.81249638
                ], 
                [
                    -97.93220329, 
                    -100.3072639, 
                    85.7881815
                ], 
                [
                    -97.93220329, 
                    -99.92607014, 
                    88.76386662
                ]
            ], 
            "CsaImage.TimeAfterStart": [
                0.6075, 
                0.4075, 
                0.62, 
                0.4175, 
                0.63, 
                0.43, 
                0.6425, 
                0.44, 
                0.6525, 
                0.4525, 
                0.665, 
                0.4625, 
                0.675, 
                0.475, 
                0.6875, 
                0.485, 
                0.6975, 
                0.4975, 
                0.71, 
                0.5075, 
                0.72, 
                0.52, 
                0.7325, 
                0.53, 
                0.7425, 
                0.5425, 
                0.755, 
                0.5525, 
                0.765, 
                0.565, 
                0.7775, 
                0.575, 
                0.7875, 
                0.5875, 
                0.8, 
                0.5975
            ], 
            "ImagePositionPatient": [
                [
                    -97.932203292847, 
                    -113.26785378686, 
                    -15.385053436111
                ], 
                [
                    -97.932203292847, 
                    -112.88666062585, 
                    -12.40937022383
                ], 
                [
                    -97.932203292847, 
                    -112.50546651117, 
                    -9.43368701155
                ], 
                [
                    -97.932203292847, 
                    -112.12427239648, 
                    -6.4580037992697
                ], 
                [
                    -97.932203292847, 
                    -111.7430782818, 
                    -3.4823205869894
                ], 
                [
                    -97.932203292847, 
                    -111.36188512079, 
                    -0.5066364210348
                ], 
                [
                    -97.932203292847, 
                    -110.9806910061, 
                    2.4690467912455
                ], 
                [
                    -97.932203292847, 
                    -110.59949689142, 
                    5.4447300035257
                ], 
                [
                    -97.932203292847, 
                    -110.21830373041, 
                    8.420413215806
                ], 
                [
                    -97.932203292847, 
                    -109.83710961572, 
                    11.396096428086
                ], 
                [
                    -97.932203292847, 
                    -109.45591550104, 
                    14.371779759576
                ], 
                [
                    -97.932203292847, 
                    -109.07472186319, 
                    17.347463329484
                ], 
                [
                    -97.932203292847, 
                    -108.69352822534, 
                    20.323146541764
                ], 
                [
                    -97.932203292847, 
                    -108.31233411066, 
                    23.298830230882
                ], 
                [
                    -97.932203292847, 
                    -107.93114047281, 
                    26.274513443162
                ], 
                [
                    -97.932203292847, 
                    -107.54994683496, 
                    29.250196655442
                ], 
                [
                    -97.932203292847, 
                    -107.16875272028, 
                    32.225879867723
                ], 
                [
                    -97.932203292847, 
                    -106.78755908243, 
                    35.201563080003
                ], 
                [
                    -97.932203292847, 
                    -106.40636496774, 
                    38.177246292283
                ], 
                [
                    -97.932203292847, 
                    -106.02517132989, 
                    41.152929504563
                ], 
                [
                    -97.932203292847, 
                    -105.64397769205, 
                    44.128612716844
                ], 
                [
                    -97.932203292847, 
                    -105.26278357736, 
                    47.104297836473
                ], 
                [
                    -97.932203292847, 
                    -104.88158993951, 
                    50.079979141404
                ], 
                [
                    -97.932203292847, 
                    -104.50039606325, 
                    53.055664261033
                ], 
                [
                    -97.932203292847, 
                    -104.11920218698, 
                    56.031345565965
                ], 
                [
                    -97.932203292847, 
                    -103.73800831071, 
                    59.007030685594
                ], 
                [
                    -97.932203292847, 
                    -103.35681443445, 
                    61.982711990525
                ], 
                [
                    -97.932203292847, 
                    -102.97562067739, 
                    64.958397110154
                ], 
                [
                    -97.932203292847, 
                    -102.59442692033, 
                    67.934078415086
                ], 
                [
                    -97.932203292847, 
                    -102.21323304407, 
                    70.909763534715
                ], 
                [
                    -97.932203292847, 
                    -101.83203922741, 
                    73.885444839646
                ], 
                [
                    -97.932203292847, 
                    -101.45084538094, 
                    76.861129959275
                ], 
                [
                    -97.932203292847, 
                    -101.06965156428, 
                    79.836811264207
                ], 
                [
                    -97.932203292847, 
                    -100.68845774762, 
                    82.812496383836
                ], 
                [
                    -97.932203292847, 
                    -100.30726390115, 
                    85.788181503465
                ], 
                [
                    -97.932203292847, 
                    -99.926070144096, 
                    88.763866623094
                ]
            ], 
            "InstanceCreationTime": [
                "092155.781000", 
                "092155.734000", 
                "092155.781000", 
                "092155.750000", 
                "092155.781000", 
                "092155.750000", 
                "092155.781000", 
                "092155.750000", 
                "092155.781000", 
                "092155.750000", 
                "092155.781000", 
                "092155.750000", 
                "092155.781000", 
                "092155.750000", 
                "092155.781000", 
                "092155.750000", 
                "092155.781000", 
                "092155.750000", 
                "092155.796000", 
                "092155.765000", 
                "092155.796000", 
                "092155.765000", 
                "092155.796000", 
                "092155.765000", 
                "092155.796000", 
                "092155.765000", 
                "092155.796000", 
                "092155.765000", 
                "092155.796000", 
                "092155.765000", 
                "092155.796000", 
                "092155.765000", 
                "092155.796000", 
                "092155.765000", 
                "092155.812000", 
                "092155.765000"
            ], 
            "InstanceNumber": [
                1, 
                2, 
                3, 
                4, 
                5, 
                6, 
                7, 
                8, 
                9, 
                10, 
                11, 
                12, 
                13, 
                14, 
                15, 
                16, 
                17, 
                18, 
                19, 
                20, 
                21, 
                22, 
                23, 
                24, 
                25, 
                26, 
                27, 
                28, 
                29, 
                30, 
                31, 
                32, 
                33, 
                34, 
                35, 
                36
            ], 
            "LargestImagePixelValue": [
                4093, 
                4092, 
                4091, 
                4086, 
                4089, 
                4086, 
                4081, 
                4091, 
                4094, 
                4090, 
                4091, 
                4083, 
                4094, 
                4068, 
                4094, 
                4093, 
                4084, 
                4094, 
                4094, 
                4092, 
                4087, 
                4094, 
                4092, 
                4093, 
                4092, 
                4094, 
                4094, 
                4093, 
                4093, 
                4094, 
                4094, 
                4094, 
                4093, 
                4094, 
                4094, 
                4092
            ], 
            "SliceLocation": [
                -29.652685038608, 
                -26.652685237633, 
                -23.65268531548, 
                -20.652685393327, 
                -17.652685471174, 
                -14.652684724256, 
                -11.652684802103, 
                -8.6526848799498, 
                -5.6526850789752, 
                -2.6526851568224, 
                0.34731488357348, 
                3.3473150998663, 
                6.34731496143, 
                9.347315356555, 
                12.347315218119, 
                15.347315079682, 
                18.347315001835, 
                21.347314863399, 
                24.347314785552, 
                27.347314647116, 
                30.347314508679, 
                33.347316322721, 
                36.347314292396, 
                39.347316076143, 
                42.347314076112, 
                45.347315859859, 
                48.347313859829, 
                51.347315628428, 
                54.347313613251, 
                57.347315396998, 
                60.347313389394, 
                63.347315169354, 
                66.34731316175, 
                69.347314937923, 
                72.347316717883, 
                75.347318486483
            ], 
            "SmallestImagePixelValue": [
                1, 
                1, 
                0, 
                0, 
                4, 
                0, 
                0, 
                2, 
                1, 
                2, 
                0, 
                0, 
                0, 
                6, 
                1, 
                0, 
                8, 
                2, 
                0, 
                3, 
                4, 
                1, 
                1, 
                0, 
                0, 
                9, 
                5, 
                8, 
                0, 
                0, 
                3, 
                1, 
                2, 
                2, 
                0, 
                0
            ], 
            "WindowCenter": [
                -252.0, 
                -270.0, 
                -308.0, 
                -372.0, 
                -402.0, 
                -272.0, 
                -282.0, 
                -276.0, 
                -176.0, 
                -164.0, 
                -80.0, 
                -38.0, 
                -132.0, 
                -40.0, 
                -64.0, 
                -146.0, 
                -44.0, 
                -172.0, 
                -158.0, 
                -192.0, 
