{
  "aor": 0.002266440677966102,
  "aqi": 0.009717033262711864,
  "bids_meta": {
    "AcquisitionMatrixPE": 68,
    "AcquisitionNumber": 1,
    "AcquisitionTime": "11:12:59.957500",
    "BandwidthPerPixelPhaseEncode": 31.289,
    "BaseResolution": 68,
    "CogAtlasID": "TODO",
    "CoilString": "C:HEP",
    "ConversionSoftware": "dcm2niix",
    "ConversionSoftwareVersion": "v1.0.20190902",
    "DerivedVendorReportedEchoSpacing": 0.000470002,
    "DeviceSerialNumber": "35450",
    "DwellTime": 3e-06,
    "EchoTime": 0.023,
    "EffectiveEchoSpacing": 0.000470002,
    "FlipAngle": 76,
    "ImageOrientationPatientDICOM": [
      0.999328,
      0.0035122,
      0.036475,
      -5.88464e-08,
      0.995396,
      -0.0958458
    ],
    "ImageType": [
      "ORIGINAL",
      "PRIMARY",
      "M",
      "ND",
      "MOSAIC"
    ],
    "ImagingFrequency": 123.219,
    "InPlanePhaseEncodingDirectionDICOM": "COL",
    "InstitutionAddress": "Univeristy_Ave._197_Newark_North_East_US_07102-1814",
    "InstitutionName": "RUBIC",
    "InstitutionalDepartmentName": "Department",
    "MRAcquisitionType": "2D",
    "MagneticFieldStrength": 3,
    "Manufacturer": "Siemens",
    "ManufacturersModelName": "TrioTim",
    "Modality": "MR",
    "PartialFourier": 1,
    "PatientPosition": "HFS",
    "PercentPhaseFOV": 100,
    "PhaseEncodingDirection": "j-",
    "PhaseEncodingSteps": 68,
    "PhaseResolution": 1,
    "PixelBandwidth": 2451,
    "ProcedureStepDescription": "Krekelberg_David",
    "ProtocolName": "ep2d_bold_RestEPI_3",
    "PulseSequenceDetails": "%SiemensSeq%_ep2d_bold",
    "ReceiveCoilName": "HeadMatrix",
    "ReconMatrixPE": 68,
    "RepetitionTime": 2,
    "SAR": 0.243173,
    "ScanOptions": "FS",
    "ScanningSequence": "EP",
    "SequenceName": "_epfid2d1_68",
    "SequenceVariant": "SK",
    "SeriesDescription": "ep2d_bold_RestEPI_3",
    "SeriesNumber": 9,
    "ShimSetting": [
      2171,
      -427,
      -7491,
      1852,
      778,
      663,
      -1692,
      -78
    ],
    "SliceThickness": 2.5,
    "SliceTiming": [
      1.9525,
      1.895,
      1.84,
      1.785,
      1.73,
      1.6725,
      1.6175,
      1.5625,
      1.505,
      1.45,
      1.395,
      1.3375,
      1.2825,
      1.2275,
      1.17,
      1.115,
      1.06,
      1.005,
      0.9475,
      0.8925,
      0.8375,
      0.78,
      0.725,
      0.67,
      0.6125,
      0.5575,
      0.5025,
      0.4475,
      0.39,
      0.335,
      0.28,
      0.2225,
      0.1675,
      0.1125,
      0.055,
      0
    ],
    "SoftwareVersions": "syngo_MR_B19",
    "SpacingBetweenSlices": 3,
    "StationName": "MRC35450",
    "TaskName": "rest",
    "TotalReadoutTime": 0.0314901,
    "TxRefAmp": 461.109,
    "dataset": "<unset>",
    "dcmmeta_affine": [
      [
        -2.9979851245880127,
        -1.7653934492045664e-07,
        0.10993113368749619,
        100.00770568847656
      ],
      [
        -0.010536608286201954,
        2.9861886501312256,
        -0.28734415769577026,
        -70.78457641601562
      ],
      [
        0.10942501574754715,
        0.28753727674484253,
        2.9841830730438232,
        -64.7544174194336
      ],
      [
        0.0,
        0.0,
        0.0,
        1.0
      ]
    ],
    "dcmmeta_reorient_transform": [
      [
        0.0,
        -1.0,
        0.0,
        67.0
      ],
      [
        1.0,
        0.0,
        0.0,
        0.0
      ],
      [
        0.0,
        0.0,
        1.0,
        0.0
      ],
      [
        0.0,
        0.0,
        0.0,
        1.0
      ]
    ],
    "dcmmeta_shape": [
      68,
      68,
      36,
      240
    ],
    "dcmmeta_slice_dim": 2,
    "dcmmeta_version": 0.6,
    "global": {
      "const": {
        "AcquisitionMatrix": [
          68,
          0,
          0,
          68
        ],
        "AngioFlag": "N",
        "BitsAllocated": 16,
        "BitsStored": 12,
        "Columns": 408,
        "EchoNumbers": 1,
        "EchoTime": 23.0,
        "EchoTrainLength": 1,
        "FlipAngle": 76.0,
        "HighBit": 11,
        "ImageOrientationPatient": [
          0.9993283936518,
          0.0035122028204,
          0.03647500613653,
          -5.8846447e-08,
          0.99539619806099,
          -0.0958457557001
        ],
        "ImagePositionPatient": [
          -609.66514615448,
          -638.73334667388,
          -15.21033976199
        ],
        "ImageType": [
          "ORIGINAL",
          "PRIMARY",
          "M",
          "ND",
          "MOSAIC"
        ],
        "ImagedNucleus": "1H",
        "ImagingFrequency": 123.218519,
        "InPlanePhaseEncodingDirection": "COL",
        "MRAcquisitionType": "2D",
        "MagneticFieldStrength": 3.0,
        "Manufacturer": "SIEMENS",
        "ManufacturerModelName": "TrioTim",
        "Modality": "MR",
        "NumberOfAverages": 1.0,
        "NumberOfPhaseEncodingSteps": 68,
        "PercentPhaseFieldOfView": 100.0,
        "PercentSampling": 100.0,
        "PerformedProcedureStepStartTime": "102358.359000",
        "PhotometricInterpretation": "MONOCHROME2",
        "PixelBandwidth": 2451.0,
        "PixelRepresentation": 0,
        "PixelSpacing": [
          3.0,
          3.0
        ],
        "ProtocolName": "ep2d_bold_RestEPI_3",
        "RepetitionTime": 2000.0,
        "Rows": 408,
        "SAR": 0.24317283616641,
        "SamplesPerPixel": 1,
        "ScanOptions": "FS",
        "ScanningSequence": "EP",
        "SequenceName": "*epfid2d1_68",
        "SequenceVariant": "SK",
        "SeriesDescription": "ep2d_bold_RestEPI_3",
        "SeriesNumber": 9,
        "SeriesTime": "111358.171000",
        "SliceLocation": -53.968515180394,
        "SliceThickness": 2.5,
        "SmallestImagePixelValue": 0,
        "SoftwareVersions": "syngo MR B19",
        "SpacingBetweenSlices": 3.0000000136537,
        "SpecificCharacterSet": "ISO_IR 100",
        "StudyID": "1",
        "StudyTime": "102358.281000",
        "TransmitCoilName": "Body",
        "VariableFlipAngleFlag": "N",
        "WindowCenterWidthExplanation": "Algo1",
        "dBdt": 0.0
      },
      "slices": {}
    },
    "modality": "bold",
    "run_id": 3,
    "subject_id": "221",
    "task_id": "rest",
    "time": {
      "samples": {
        "AcquisitionNumber": [
          1,
          2,
          3,
          4,
          5,
          6,
          7,
          8,
          9,
          10,
          11,
          12,
          13,
          14,
          15,
          16,
          17,
          18,
          19,
          20,
          21,
          22,
          23,
          24,
          25,
          26,
          27,
          28,
          29,
          30,
          31,
          32,
          33,
          34,
          35,
          36,
          37,
          38,
          39,
          40,
          41,
          42,
          43,
          44,
          45,
          46,
          47,
          48,
          49,
          50,
          51,
          52,
          53,
          54,
          55,
          56,
          57,
          58,
          59,
          60,
          61,
          62,
          63,
          64,
          65,
          66,
          67,
          68,
          69,
          70,
          71,
          72,
          73,
          74,
          75,
          76,
          77,
          78,
          79,
          80,
          81,
          82,
          83,
          84,
          85,
          86,
          87,
          88,
          89,
          90,
          91,
          92,
          93,
          94,
          95,
          96,
          97,
          98,
          99,
          100,
          101,
          102,
          103,
          104,
          105,
          106,
          107,
          108,
          109,
          110,
          111,
          112,
          113,
          114,
          115,
          116,
          117,
          118,
          119,
          120,
          121,
          122,
          123,
          124,
          125,
          126,
          127,
          128,
          129,
          130,
          131,
          132,
          133,
          134,
          135,
          136,
          137,
          138,
          139,
          140,
          141,
          142,
          143,
          144,
          145,
          146,
          147,
          148,
          149,
          150,
          151,
          152,
          153,
          154,
          155,
          156,
          157,
          158,
          159,
          160,
          161,
          162,
          163,
          164,
          165,
          166,
          167,
          168,
          169,
          170,
          171,
          172,
          173,
          174,
          175,
          176,
          177,
          178,
          179,
          180,
          181,
          182,
          183,
          184,
          185,
          186,
          187,
          188,
          189,
          190,
          191,
          192,
          193,
          194,
          195,
          196,
          197,
          198,
          199,
          200,
          201,
          202,
          203,
          204,
          205,
          206,
          207,
          208,
          209,
          210,
          211,
          212,
          213,
          214,
          215,
          216,
          217,
          218,
          219,
          220,
          221,
          222,
          223,
          224,
          225,
          226,
          227,
          228,
          229,
          230,
          231,
          232,
          233,
          234,
          235,
          236,
          237,
          238,
          239,
          240
        ],
        "AcquisitionTime": [
          "111259.957500",
          "111301.965000",
          "111303.972500",
          "111305.980000",
          "111307.990000",
          "111309.997500",
          "111312.005000",
          "111314.012500",
          "111316.020000",
          "111318.030000",
          "111320.037500",
          "111322.045000",
          "111324.052500",
          "111326.062500",
          "111328.070000",
          "111330.077500",
          "111332.085000",
          "111334.092500",
          "111336.102500",
          "111338.110000",
          "111340.117500",
          "111342.125000",
          "111344.132500",
          "111346.142500",
          "111348.150000",
          "111350.157500",
          "111352.165000",
          "111354.175000",
          "111356.182500",
          "111358.190000",
          "111400.197500",
          "111402.205000",
          "111404.215000",
          "111406.222500",
          "111408.230000",
          "111410.237500",
          "111412.245000",
          "111414.255000",
          "111416.262500",
          "111418.270000",
          "111420.277500",
          "111422.285000",
          "111424.295000",
          "111426.302500",
          "111428.310000",
          "111430.317500",
          "111432.327500",
          "111434.335000",
          "111436.342500",
          "111438.350000",
          "111440.357500",
          "111442.367500",
          "111444.375000",
          "111446.382500",
          "111448.390000",
          "111450.397500",
          "111452.407500",
          "111454.415000",
          "111456.422500",
          "111458.430000",
          "111500.440000",
          "111502.447500",
          "111504.455000",
          "111506.462500",
          "111508.470000",
          "111510.480000",
          "111512.487500",
          "111514.495000",
          "111516.502500",
          "111518.510000",
          "111520.520000",
          "111522.527500",
          "111524.535000",
          "111526.542500",
          "111528.552500",
          "111530.560000",
          "111532.567500",
          "111534.575000",
          "111536.582500",
          "111538.592500",
          "111540.600000",
          "111542.607500",
          "111544.615000",
          "111546.622500",
          "111548.632500",
          "111550.640000",
          "111552.647500",
          "111554.655000",
          "111556.662500",
          "111558.672500",
          "111600.680000",
          "111602.687500",
          "111604.695000",
          "111606.705000",
          "111608.712500",
          "111610.720000",
          "111612.727500",
          "111614.735000",
          "111616.745000",
          "111618.752500",
          "111620.760000",
          "111622.767500",
          "111624.775000",
          "111626.785000",
          "111628.792500",
          "111630.800000",
          "111632.807500",
          "111634.817500",
          "111636.825000",
          "111638.832500",
          "111640.840000",
          "111642.847500",
          "111644.857500",
          "111646.865000",
          "111648.872500",
          "111650.880000",
          "111652.887500",
          "111654.897500",
          "111656.905000",
          "111658.912500",
          "111700.920000",
          "111702.930000",
          "111704.937500",
          "111706.945000",
          "111708.952500",
          "111710.960000",
          "111712.970000",
          "111714.977500",
          "111716.985000",
          "111718.992500",
          "111721.000000",
          "111723.010000",
          "111725.017500",
          "111727.025000",
          "111729.032500",
          "111731.040000",
          "111733.050000",
          "111735.057500",
          "111737.065000",
          "111739.072500",
          "111741.082500",
          "111743.090000",
          "111745.097500",
          "111747.105000",
          "111749.112500",
          "111751.122500",
          "111753.130000",
          "111755.137500",
          "111757.145000",
          "111759.152500",
          "111801.162500",
          "111803.170000",
          "111805.177500",
          "111807.185000",
          "111809.195000",
          "111811.202500",
          "111813.210000",
          "111815.217500",
          "111817.225000",
          "111819.235000",
          "111821.242500",
          "111823.250000",
          "111825.257500",
          "111827.265000",
          "111829.275000",
          "111831.282500",
          "111833.290000",
          "111835.297500",
          "111837.307500",
          "111839.315000",
          "111841.322500",
          "111843.330000",
          "111845.337500",
          "111847.347500",
          "111849.355000",
          "111851.362500",
          "111853.370000",
          "111855.377500",
          "111857.387500",
          "111859.395000",
          "111901.402500",
          "111903.410000",
          "111905.420000",
          "111907.427500",
          "111909.435000",
          "111911.442500",
          "111913.450000",
          "111915.460000",
          "111917.467500",
          "111919.475000",
          "111921.482500",
          "111923.490000",
          "111925.500000",
          "111927.507500",
          "111929.515000",
          "111931.522500",
          "111933.530000",
          "111935.540000",
          "111937.547500",
          "111939.555000",
          "111941.562500",
          "111943.572500",
          "111945.580000",
          "111947.587500",
          "111949.595000",
          "111951.602500",
          "111953.612500",
          "111955.620000",
          "111957.627500",
          "111959.635000",
          "112001.642500",
          "112003.652500",
          "112005.660000",
          "112007.667500",
          "112009.675000",
          "112011.685000",
          "112013.692500",
          "112015.700000",
          "112017.707500",
          "112019.715000",
          "112021.725000",
          "112023.732500",
          "112025.740000",
          "112027.747500",
          "112029.755000",
          "112031.765000",
          "112033.772500",
          "112035.780000",
          "112037.787500",
          "112039.797500",
          "112041.805000",
          "112043.812500",
          "112045.820000",
          "112047.827500",
          "112049.837500",
          "112051.845000",
          "112053.852500",
          "112055.860000",
          "112057.867500",
          "112059.877500"
        ],
        "ContentTime": [
          "111358.187000",
          "111358.187000",
          "111358.187000",
          "111358.187000",
          "111358.187000",
          "111358.187000",
          "111358.187000",
          "111358.203000",
          "111358.203000",
          "111358.203000",
          "111358.203000",
          "111358.203000",
          "111358.203000",
          "111358.203000",
          "111358.218000",
          "111358.218000",
          "111358.218000",
          "111358.218000",
          "111358.218000",
          "111358.218000",
          "111358.218000",
          "111358.234000",
          "111358.234000",
          "111358.234000",
          "111358.234000",
          "111358.234000",
          "111358.234000",
          "111358.234000",
          "111358.250000",
          "111438.171000",
          "111438.171000",
          "111438.187000",
          "111438.187000",
          "111438.187000",
          "111438.187000",
          "111438.187000",
          "111438.187000",
          "111438.187000",
          "111438.187000",
          "111438.203000",
          "111438.203000",
          "111438.203000",
          "111438.203000",
          "111438.203000",
          "111438.203000",
          "111438.203000",
          "111438.218000",
          "111438.218000",
          "111438.218000",
          "111518.171000",
          "111518.171000",
          "111518.187000",
          "111518.187000",
          "111518.187000",
          "111518.187000",
          "111518.187000",
          "111518.187000",
          "111518.187000",
          "111518.203000",
          "111518.203000",
          "111518.203000",
          "111518.203000",
          "111518.203000",
          "111518.203000",
          "111518.203000",
          "111518.218000",
          "111518.218000",
          "111518.218000",
          "111518.218000",
          "111558.171000",
          "111558.171000",
          "111558.187000",
          "111558.187000",
          "111558.187000",
          "111558.187000",
          "111558.187000",
          "111558.187000",
          "111558.187000",
          "111558.203000",
          "111558.203000",
          "111558.203000",
          "111558.203000",
          "111558.203000",
          "111558.203000",
          "111558.203000",
          "111558.218000",
          "111558.218000",
          "111558.218000",
          "111558.218000",
          "111638.171000",
          "111638.187000",
          "111638.187000",
          "111638.187000",
          "111638.187000",
          "111638.187000",
          "111638.187000",
          "111638.187000",
          "111638.187000",
          "111638.203000",
          "111638.203000",
          "111638.203000",
          "111638.203000",
          "111638.203000",
          "111638.203000",
          "111638.203000",
          "111638.218000",
          "111638.218000",
          "111638.218000",
          "111638.218000",
          "111718.171000",
          "111718.171000",
          "111718.187000",
          "111718.187000",
          "111718.187000",
          "111718.187000",
          "111718.187000",
          "111718.187000",
          "111718.187000",
          "111718.203000",
          "111718.203000",
          "111718.203000",
          "111718.203000",
          "111718.203000",
          "111718.203000",
          "111718.203000",
          "111718.218000",
          "111718.218000",
          "111718.218000",
          "111718.218000",
          "111758.171000",
          "111758.171000",
          "111758.187000",
          "111758.187000",
          "111758.187000",
          "111758.187000",
          "111758.187000",
          "111758.187000",
          "111758.187000",
          "111758.203000",
          "111758.203000",
          "111758.203000",
          "111758.203000",
          "111758.203000",
          "111758.203000",
          "111758.203000",
          "111758.218000",
          "111758.218000",
          "111758.218000",
          "111758.218000",
          "111838.171000",
          "111838.171000",
          "111838.187000",
          "111838.187000",
          "111838.187000",
          "111838.187000",
          "111838.187000",
          "111838.187000",
          "111838.187000",
          "111838.203000",
          "111838.203000",
          "111838.203000",
          "111838.203000",
          "111838.203000",
          "111838.203000",
          "111838.203000",
          "111838.218000",
          "111838.218000",
          "111838.218000",
          "111838.218000",
          "111918.171000",
          "111918.171000",
          "111918.187000",
          "111918.187000",
          "111918.187000",
          "111918.187000",
          "111918.187000",
          "111918.187000",
          "111918.187000",
          "111918.203000",
          "111918.203000",
          "111918.203000",
          "111918.203000",
          "111918.203000",
          "111918.203000",
          "111918.203000",
          "111918.203000",
          "111918.218000",
          "111918.218000",
          "111918.218000",
          "111958.171000",
          "111958.171000",
          "111958.187000",
          "111958.187000",
          "111958.187000",
          "111958.187000",
          "111958.187000",
          "111958.187000",
          "111958.187000",
          "111958.203000",
          "111958.203000",
          "111958.203000",
          "111958.203000",
          "111958.203000",
          "111958.203000",
          "111958.203000",
          "111958.218000",
          "111958.218000",
          "111958.218000",
          "111958.218000",
          "112038.171000",
          "112038.171000",
          "112038.187000",
          "112038.187000",
          "112038.187000",
          "112038.187000",
          "112038.187000",
          "112038.187000",
          "112038.187000",
          "112038.203000",
          "112038.203000",
          "112038.203000",
          "112038.203000",
          "112038.203000",
          "112038.203000",
          "112038.203000",
          "112038.218000",
          "112038.218000",
          "112038.218000",
          "112038.218000",
          "112059.562000",
          "112059.562000",
          "112059.562000",
          "112059.562000",
          "112059.578000",
          "112059.578000",
          "112059.578000",
          "112059.578000",
          "112059.578000",
          "112059.578000",
          "112059.578000"
        ],
        "InstanceCreationTime": [
          "111358.187000",
          "111358.187000",
          "111358.187000",
          "111358.187000",
          "111358.187000",
          "111358.187000",
          "111358.187000",
          "111358.203000",
          "111358.203000",
          "111358.203000",
          "111358.203000",
          "111358.203000",
          "111358.203000",
          "111358.203000",
          "111358.218000",
          "111358.218000",
          "111358.218000",
          "111358.218000",
          "111358.218000",
          "111358.218000",
          "111358.218000",
          "111358.234000",
          "111358.234000",
          "111358.234000",
          "111358.234000",
          "111358.234000",
          "111358.234000",
          "111358.234000",
          "111358.250000",
          "111438.171000",
          "111438.171000",
          "111438.187000",
          "111438.187000",
          "111438.187000",
          "111438.187000",
          "111438.187000",
          "111438.187000",
          "111438.187000",
          "111438.187000",
          "111438.203000",
          "111438.203000",
          "111438.203000",
          "111438.203000",
          "111438.203000",
          "111438.203000",
          "111438.203000",
          "111438.218000",
          "111438.218000",
          "111438.218000",
          "111518.171000",
          "111518.171000",
          "111518.187000",
          "111518.187000",
          "111518.187000",
          "111518.187000",
          "111518.187000",
          "111518.187000",
          "111518.187000",
          "111518.203000",
          "111518.203000",
          "111518.203000",
          "111518.203000",
          "111518.203000",
          "111518.203000",
          "111518.203000",
          "111518.218000",
          "111518.218000",
          "111518.218000",
          "111518.218000",
          "111558.171000",
          "111558.171000",
          "111558.187000",
          "111558.187000",
          "111558.187000",
          "111558.187000",
          "111558.187000",
          "111558.187000",
          "111558.187000",
          "111558.203000",
          "111558.203000",
          "111558.203000",
          "111558.203000",
          "111558.203000",
          "111558.203000",
          "111558.203000",
          "111558.218000",
          "111558.218000",
          "111558.218000",
          "111558.218000",
          "111638.171000",
          "111638.187000",
          "111638.187000",
          "111638.187000",
          "111638.187000",
          "111638.187000",
          "111638.187000",
          "111638.187000",
          "111638.187000",
          "111638.203000",
          "111638.203000",
          "111638.203000",
          "111638.203000",
          "111638.203000",
          "111638.203000",
          "111638.203000",
          "111638.218000",
          "111638.218000",
          "111638.218000",
          "111638.218000",
          "111718.171000",
          "111718.171000",
          "111718.187000",
          "111718.187000",
          "111718.187000",
          "111718.187000",
          "111718.187000",
          "111718.187000",
          "111718.187000",
          "111718.203000",
          "111718.203000",
          "111718.203000",
          "111718.203000",
          "111718.203000",
          "111718.203000",
          "111718.203000",
          "111718.218000",
          "111718.218000",
          "111718.218000",
          "111718.218000",
          "111758.171000",
          "111758.171000",
          "111758.187000",
          "111758.187000",
          "111758.187000",
          "111758.187000",
          "111758.187000",
          "111758.187000",
          "111758.187000",
          "111758.203000",
          "111758.203000",
          "111758.203000",
          "111758.203000",
          "111758.203000",
          "111758.203000",
          "111758.203000",
          "111758.218000",
          "111758.218000",
          "111758.218000",
          "111758.218000",
          "111838.171000",
          "111838.171000",
          "111838.187000",
          "111838.187000",
          "111838.187000",
          "111838.187000",
          "111838.187000",
          "111838.187000",
          "111838.187000",
          "111838.203000",
          "111838.203000",
          "111838.203000",
          "111838.203000",
          "111838.203000",
          "111838.203000",
          "111838.203000",
          "111838.218000",
          "111838.218000",
          "111838.218000",
          "111838.218000",
          "111918.171000",
          "111918.171000",
          "111918.187000",
          "111918.187000",
          "111918.187000",
          "111918.187000",
          "111918.187000",
          "111918.187000",
          "111918.187000",
          "111918.203000",
          "111918.203000",
          "111918.203000",
          "111918.203000",
          "111918.203000",
          "111918.203000",
          "111918.203000",
          "111918.203000",
          "111918.218000",
          "111918.218000",
          "111918.218000",
          "111958.171000",
          "111958.171000",
          "111958.187000",
          "111958.187000",
          "111958.187000",
          "111958.187000",
          "111958.187000",
          "111958.187000",
          "111958.187000",
          "111958.203000",
          "111958.203000",
          "111958.203000",
          "111958.203000",
          "111958.203000",
          "111958.203000",
          "111958.203000",
          "111958.218000",
          "111958.218000",
          "111958.218000",
          "111958.218000",
          "112038.171000",
          "112038.171000",
          "112038.187000",
          "112038.187000",
          "112038.187000",
          "112038.187000",
          "112038.187000",
          "112038.187000",
          "112038.187000",
          "112038.203000",
          "112038.203000",
          "112038.203000",
          "112038.203000",
          "112038.203000",
          "112038.203000",
          "112038.203000",
          "112038.218000",
          "112038.218000",
          "112038.218000",
          "112038.218000",
          "112059.562000",
          "112059.562000",
          "112059.562000",
          "112059.562000",
          "112059.578000",
          "112059.578000",
          "112059.578000",
          "112059.578000",
          "112059.578000",
          "112059.578000",
          "112059.578000"
        ],
        "InstanceNumber": [
          1,
          2,
          3,
          4,
          5,
          6,
          7,
          8,
          9,
          10,
          11,
          12,
          13,
          14,
          15,
          16,
          17,
          18,
          19,
          20,
          21,
          22,
          23,
          24,
          25,
          26,
          27,
          28,
          29,
          30,
          31,
          32,
          33,
          34,
          35,
          36,
          37,
          38,
          39,
          40,
          41,
          42,
          43,
          44,
          45,
          46,
