{
    "AcquisitionMatrixPE": 68, 
    "AcquisitionNumber": 1, 
    "AcquisitionTime": "11:53:23.235000", 
    "BaseResolution": 68, 
    "CoilString": "C:HEA;HEP", 
    "ConversionSoftware": "dcm2niix", 
    "ConversionSoftwareVersion": "v1.0.20190902", 
    "DeviceSerialNumber": "35450", 
    "DwellTime": 2.82e-05, 
    "EchoNumber": 2, 
    "EchoTime": 0.00765, 
    "EchoTime1": 0.00519, 
    "EchoTime2": 0.00765, 
    "FlipAngle": 60, 
    "ImageOrientationPatientDICOM": [
        0.999877, 
        -0.00267352, 
        -0.0154781, 
        -8.8598e-09, 
        0.985408, 
        -0.170209
    ], 
    "ImageType": [
        "ORIGINAL", 
        "PRIMARY", 
        "P", 
        "ND"
    ], 
    "ImagingFrequency": 123.218, 
    "InPlanePhaseEncodingDirectionDICOM": "COL", 
    "InstitutionAddress": "Univeristy_Ave._197_Newark_North_East_US_07102-1814", 
    "InstitutionName": "RUBIC", 
    "InstitutionalDepartmentName": "Department", 
    "IntendedFor": [
        "func/sub-234_task-rest_run-02_bold.nii.gz", 
        "func/sub-234_task-cardgame_run-02_bold.nii.gz", 
        "func/sub-234_task-rest_run-03_bold.nii.gz", 
        "func/sub-234_task-rest_run-04_bold.nii.gz", 
        "func/sub-234_task-cardgame_run-01_bold.nii.gz", 
        "func/sub-234_task-rest_run-01_bold.nii.gz", 
        "func/sub-234_task-cardgame_run-03_bold.nii.gz"
    ], 
    "MRAcquisitionType": "2D", 
    "MagneticFieldStrength": 3, 
    "Manufacturer": "Siemens", 
    "ManufacturersModelName": "TrioTim", 
    "Modality": "MR", 
    "PartialFourier": 1, 
    "PatientPosition": "HFS", 
    "PercentPhaseFOV": 100, 
    "PhaseEncodingDirection": "j-", 
    "PhaseEncodingSteps": 68, 
    "PhaseResolution": 1, 
    "PixelBandwidth": 261, 
    "ProcedureStepDescription": "Krekelberg_David", 
    "ProtocolName": "gre_field_mapping", 
    "PulseSequenceDetails": "%SiemensSeq%_gre_field_mapping", 
    "ReceiveCoilName": "HeadMatrix", 
    "ReconMatrixPE": 68, 
    "RepetitionTime": 0.402, 
    "SAR": 0.391928, 
    "ScanningSequence": "GR", 
    "SequenceName": "_fm2d2r", 
    "SequenceVariant": "SP", 
    "SeriesDescription": "gre_field_mapping", 
    "SeriesNumber": 4, 
    "ShimSetting": [
        1939, 
        -610, 
        -7577, 
        645, 
        94, 
        -44, 
        -174, 
        129
    ], 
    "SliceThickness": 2.5, 
    "SliceTiming": [
        0.20312, 
        0, 
        0.21094, 
        0.01562, 
        0.22656, 
        0.02344, 
        0.23438, 
        0.03906, 
        0.25, 
        0.04688, 
        0.25781, 
        0.0625, 
        0.27344, 
        0.07031, 
        0.28125, 
        0.07812, 
        0.29688, 
        0.09375, 
        0.30469, 
        0.10156, 
        0.3125, 
        0.11719, 
        0.32812, 
        0.125, 
        0.33594, 
        0.13281, 
        0.35156, 
        0.14844, 
        0.35938, 
        0.15625, 
        0.375, 
        0.17188, 
        0.38281, 
        0.17969, 
        0.39062, 
        0.1875
    ], 
    "SoftwareVersions": "syngo_MR_B19", 
    "SpacingBetweenSlices": 3, 
    "StationName": "MRC35450", 
    "TxRefAmp": 493.626, 
    "dcmmeta_affine": [
        [
            -2.9996299743652344, 
            -2.65794088960547e-08, 
            -0.04712200164794922, 
            98.74425506591797
        ], 
        [
            0.008020575158298016, 
            2.956223726272583, 
            -0.5105667114257812, 
            -63.1201057434082
        ], 
        [
            -0.04643433168530464, 
            0.5106285214424133, 
            2.9558563232421875, 
            -48.69348907470703
        ], 
        [
            0.0, 
            0.0, 
            0.0, 
            1.0
        ]
    ], 
    "dcmmeta_reorient_transform": [
        [
            0.0, 
            -1.0, 
            0.0, 
            67.0
        ], 
        [
            1.0, 
            0.0, 
            0.0, 
            0.0
        ], 
        [
            0.0, 
            0.0, 
            -1.0, 
            35.0
        ], 
        [
            0.0, 
            0.0, 
            0.0, 
            1.0
        ]
    ], 
    "dcmmeta_shape": [
        68, 
        68, 
        36
    ], 
    "dcmmeta_slice_dim": 2, 
    "dcmmeta_version": 0.6, 
    "global": {
        "const": {
            "AcquisitionMatrix": [
                68, 
                0, 
                0, 
                68
            ], 
            "AcquisitionNumber": 1, 
            "AngioFlag": "N", 
            "BitsAllocated": 16, 
            "BitsStored": 12, 
            "Columns": 68, 
            "EchoNumbers": 2, 
            "EchoTime": 7.65, 
            "EchoTrainLength": 1, 
            "FlipAngle": 60.0, 
            "HighBit": 11, 
            "ImageOrientationPatient": [
                0.99987663256732, 
                -0.0026735249799, 
                -0.0154781106732, 
                -8.859803e-09, 
                0.98540789821261, 
                -0.1702095007343
            ], 
            "ImageType": [
                "ORIGINAL", 
                "PRIMARY", 
                "P", 
                "ND"
            ], 
            "ImagedNucleus": "1H", 
            "ImagingFrequency": 123.218422, 
            "InPlanePhaseEncodingDirection": "COL", 
            "MRAcquisitionType": "2D", 
            "MagneticFieldStrength": 3.0, 
            "Manufacturer": "SIEMENS", 
            "ManufacturerModelName": "TrioTim", 
            "Modality": "MR", 
            "NumberOfAverages": 1.0, 
            "NumberOfPhaseEncodingSteps": 68, 
            "PercentPhaseFieldOfView": 100.0, 
            "PercentSampling": 100.0, 
            "PerformedProcedureStepStartTime": "113507.187000", 
            "PhotometricInterpretation": "MONOCHROME2", 
            "PixelBandwidth": 261.0, 
            "PixelRepresentation": 0, 
            "PixelSpacing": [
                3.0, 
                3.0
            ], 
            "ProtocolName": "gre_field_mapping", 
            "RepetitionTime": 402.0, 
            "RescaleIntercept": -4096.0, 
            "RescaleSlope": 2.0, 
            "RescaleType": "US", 
            "Rows": 68, 
            "SAR": 0.39192753047075, 
            "SamplesPerPixel": 1, 
            "ScanningSequence": "GR", 
            "SequenceName": "*fm2d2r", 
            "SequenceVariant": "SP", 
            "SeriesDescription": "gre_field_mapping", 
            "SeriesNumber": 4, 
            "SeriesTime": "115422.656000", 
            "SliceThickness": 2.5, 
            "SoftwareVersions": "syngo MR B19", 
            "SpacingBetweenSlices": 3.0, 
            "SpecificCharacterSet": "ISO_IR 100", 
            "StudyID": "1", 
            "StudyTime": "113507.109000", 
            "TransmitCoilName": "Body", 
            "VariableFlipAngleFlag": "N", 
            "WindowCenterWidthExplanation": "Algo1", 
            "dBdt": 0.0
        }, 
        "slices": {
            "AcquisitionTime": [
                "115323.235000", 
                "115323.032500", 
                "115323.245000", 
                "115323.045000", 
                "115323.257500", 
                "115323.055000", 
                "115323.267500", 
                "115323.067500", 
                "115323.280000", 
                "115323.077500", 
                "115323.290000", 
                "115323.090000", 
                "115323.302500", 
                "115323.100000", 
                "115323.312500", 
                "115323.112500", 
                "115323.325000", 
                "115323.122500", 
                "115323.335000", 
                "115323.135000", 
                "115323.347500", 
                "115323.145000", 
                "115323.357500", 
                "115323.157500", 
                "115323.370000", 
                "115323.167500", 
                "115323.380000", 
                "115323.177500", 
                "115323.392500", 
                "115323.190000", 
                "115323.402500", 
                "115323.200000", 
                "115323.415000", 
                "115323.212500", 
                "115323.425000", 
                "115323.222500"
            ], 
            "ContentTime": [
                "115422.687000", 
                "115422.656000", 
                "115422.703000", 
                "115422.656000", 
                "115422.703000", 
                "115422.656000", 
                "115422.703000", 
                "115422.671000", 
                "115422.703000", 
                "115422.671000", 
                "115422.703000", 
                "115422.671000", 
                "115422.703000", 
                "115422.671000", 
                "115422.703000", 
                "115422.671000", 
                "115422.703000", 
                "115422.671000", 
                "115422.703000", 
                "115422.671000", 
                "115422.718000", 
                "115422.671000", 
                "115422.718000", 
                "115422.687000", 
                "115422.718000", 
                "115422.687000", 
                "115422.718000", 
                "115422.687000", 
                "115422.718000", 
                "115422.687000", 
                "115422.718000", 
                "115422.687000", 
                "115422.718000", 
                "115422.687000", 
                "115422.718000", 
                "115422.687000"
            ], 
            "CsaImage.ICE_Dims": [
                "X_2_1_1_1_1_1_19_1_1_1_1_62", 
                "X_2_1_1_1_1_1_1_1_1_2_1_62", 
                "X_2_1_1_1_1_1_20_1_1_3_1_62", 
                "X_2_1_1_1_1_1_2_1_1_4_1_62", 
                "X_2_1_1_1_1_1_21_1_1_5_1_62", 
                "X_2_1_1_1_1_1_3_1_1_6_1_62", 
                "X_2_1_1_1_1_1_22_1_1_7_1_62", 
                "X_2_1_1_1_1_1_4_1_1_8_1_62", 
                "X_2_1_1_1_1_1_23_1_1_9_1_62", 
                "X_2_1_1_1_1_1_5_1_1_10_1_62", 
                "X_2_1_1_1_1_1_24_1_1_11_1_62", 
                "X_2_1_1_1_1_1_6_1_1_12_1_62", 
                "X_2_1_1_1_1_1_25_1_1_13_1_62", 
                "X_2_1_1_1_1_1_7_1_1_14_1_62", 
                "X_2_1_1_1_1_1_26_1_1_15_1_62", 
                "X_2_1_1_1_1_1_8_1_1_16_1_62", 
                "X_2_1_1_1_1_1_27_1_1_17_1_62", 
                "X_2_1_1_1_1_1_9_1_1_18_1_62", 
                "X_2_1_1_1_1_1_28_1_1_19_1_62", 
                "X_2_1_1_1_1_1_10_1_1_20_1_62", 
                "X_2_1_1_1_1_1_29_1_1_21_1_62", 
                "X_2_1_1_1_1_1_11_1_1_22_1_62", 
                "X_2_1_1_1_1_1_30_1_1_23_1_62", 
                "X_2_1_1_1_1_1_12_1_1_24_1_62", 
                "X_2_1_1_1_1_1_31_1_1_25_1_62", 
                "X_2_1_1_1_1_1_13_1_1_26_1_62", 
                "X_2_1_1_1_1_1_32_1_1_27_1_62", 
                "X_2_1_1_1_1_1_14_1_1_28_1_62", 
                "X_2_1_1_1_1_1_33_1_1_29_1_62", 
                "X_2_1_1_1_1_1_15_1_1_30_1_62", 
                "X_2_1_1_1_1_1_34_1_1_31_1_62", 
                "X_2_1_1_1_1_1_16_1_1_32_1_62", 
                "X_2_1_1_1_1_1_35_1_1_33_1_62", 
                "X_2_1_1_1_1_1_17_1_1_34_1_62", 
                "X_2_1_1_1_1_1_36_1_1_35_1_62", 
                "X_2_1_1_1_1_1_18_1_1_36_1_62"
            ], 
            "CsaImage.ProtocolSliceNumber": [
                0, 
                1, 
                2, 
                3, 
                4, 
                5, 
                6, 
                7, 
                8, 
                9, 
                10, 
                11, 
                12, 
                13, 
                14, 
                15, 
                16, 
                17, 
                18, 
                19, 
                20, 
                21, 
                22, 
                23, 
                24, 
                25, 
                26, 
                27, 
                28, 
                29, 
                30, 
                31, 
                32, 
                33, 
                34, 
                35
            ], 
            "CsaImage.SliceMeasurementDuration": [
                54085.0, 
                54085.0, 
                54085.0, 
                54082.5, 
                54085.0, 
                54085.0, 
                54085.0, 
                54082.5, 
                54085.0, 
                54085.0, 
                54085.0, 
                54082.5, 
                54085.0, 
                54085.0, 
                54085.0, 
                54082.5, 
                54082.5, 
                54085.0, 
                54085.0, 
                54082.5, 
                54082.5, 
                54085.0, 
                54085.0, 
                54082.5, 
                54082.5, 
                54085.0, 
                54085.0, 
                54085.0, 
                54082.5, 
                54085.0, 
                54085.0, 
                54085.0, 
                54082.5, 
                54085.0, 
                54085.0, 
                54085.0
            ], 
            "CsaImage.SlicePosition_PCS": [
                [
                    -98.74425299, 
                    -134.9468414, 
                    -14.48147161
                ], 
                [
                    -98.69713122, 
                    -134.43627469, 
                    -11.52561147
                ], 
                [
                    -98.65000922, 
                    -133.92571179, 
                    -8.56975324
                ], 
                [
                    -98.60288722, 
                    -133.41514508, 
                    -5.6138931
                ], 
                [
                    -98.55576522, 
                    -132.90457837, 
                    -2.65803487
                ], 
                [
                    -98.50864322, 
                    -132.39401548, 
                    0.29782336
                ], 
                [
                    -98.46152145, 
                    -131.88344876, 
                    3.2536835
                ], 
                [
                    -98.41439945, 
                    -131.37288396, 
                    6.20954173
                ], 
                [
                    -98.36727745, 
                    -130.86231725, 
                    9.16540091
                ], 
                [
                    -98.32015545, 
                    -130.35175244, 
                    12.1212601
                ], 
                [
                    -98.27303345, 
                    -129.84118764, 
                    15.07711904
                ], 
                [
                    -98.22591168, 
                    -129.33062093, 
                    18.03297811
                ], 
                [
                    -98.17878968, 
                    -128.82005612, 
                    20.98883717
                ], 
                [
                    -98.13166768, 
                    -128.30948941, 
                    23.94469588
                ], 
                [
                    -98.08454568, 
                    -127.79892461, 
                    26.90055506
                ], 
                [
                    -98.03742368, 
                    -127.28835981, 
                    29.85641425
                ], 
                [
                    -97.99030191, 
                    -126.77779309, 
                    32.81227343
                ], 
                [
                    -97.94317991, 
                    -126.26722829, 
                    35.76813166
                ], 
                [
                    -97.89605791, 
                    -125.75666349, 
                    38.7239918
                ], 
                [
                    -97.84893591, 
                    -125.24609677, 
                    41.67985003
                ], 
                [
                    -97.80181391, 
                    -124.73553197, 
                    44.63570826
                ], 
                [
                    -97.75469191, 
                    -124.22496526, 
                    47.5915684
                ], 
                [
                    -97.7075699, 
                    -123.71440045, 
                    50.54742663
                ], 
                [
                    -97.66044838, 
                    -123.20383565, 
                    53.50328486
                ], 
                [
                    -97.61332638, 
                    -122.69326894, 
                    56.459145
                ], 
                [
                    -97.56620438, 
                    -122.18270413, 
                    59.41500514
                ], 
                [
                    -97.51908237, 
                    -121.67213933, 
                    62.37086146
                ], 
                [
                    -97.47196037, 
                    -121.16157262, 
                    65.3267216
                ], 
                [
                    -97.42483837, 
                    -120.65100782, 
                    68.28258174
                ], 
                [
                    -97.37771637, 
                    -120.14044301, 
                    71.23844188
                ], 
                [
                    -97.33059437, 
                    -119.6298763, 
                    74.1942982
                ], 
                [
                    -97.28347237, 
                    -119.1193115, 
                    77.15015834
                ], 
                [
                    -97.23635036, 
                    -118.60874478, 
                    80.10601847
                ], 
                [
                    -97.18922884, 
                    -118.09817998, 
                    83.06187861
                ], 
                [
                    -97.14210684, 
                    -117.58761518, 
                    86.01773494
                ], 
                [
                    -97.09498484, 
                    -117.07704846, 
                    88.97359126
                ]
            ], 
            "CsaImage.TimeAfterStart": [
                0.6075, 
                0.4075, 
                0.62, 
                0.4175, 
                0.63, 
                0.4275, 
                0.6425, 
                0.44, 
                0.6525, 
                0.45, 
                0.665, 
                0.4625, 
                0.675, 
                0.4725, 
                0.6875, 
                0.485, 
                0.6975, 
                0.495, 
                0.71, 
                0.5075, 
                0.72, 
                0.5175, 
                0.7325, 
                0.53, 
                0.7425, 
                0.54, 
                0.7525, 
                0.5525, 
                0.765, 
                0.5625, 
                0.775, 
                0.575, 
                0.7875, 
                0.585, 
                0.7975, 
                0.5975
            ], 
            "ImagePositionPatient": [
                [
                    -98.744252986178, 
                    -134.94684140299, 
                    -14.481471607627
                ], 
                [
                    -98.697131222949, 
                    -134.43627469156, 
                    -11.525611469687
                ], 
                [
                    -98.650009221301, 
                    -133.92571179483, 
                    -8.5697532390966
                ], 
                [
                    -98.602887219653, 
                    -133.41514508341, 
                    -5.6138931011572
                ], 
                [
                    -98.555765218005, 
                    -132.90457837198, 
                    -2.6580348705664
                ], 
                [
                    -98.508643216357, 
                    -132.39401547525, 
                    0.29782336002445
                ], 
                [
                    -98.461521453128, 
                    -131.88344876383, 
                    3.2536834979639
                ], 
                [
                    -98.41439945148, 
                    -131.37288395975, 
                    6.2095417285547
                ], 
                [
                    -98.367277449832, 
                    -130.86231724832, 
                    9.1654009128199
                ], 
                [
                    -98.320155448184, 
                    -130.35175244425, 
                    12.121260097085
                ], 
                [
                    -98.273033446536, 
                    -129.84118764017, 
                    15.077119042932
                ], 
                [
                    -98.225911683307, 
                    -129.33062092874, 
                    18.032978107987
                ], 
                [
                    -98.178789681659, 
                    -128.82005612467, 
                    20.988837173043
                ], 
                [
                    -98.131667680011, 
                    -128.30948941324, 
                    23.944695880471
                ], 
                [
                    -98.084545678363, 
                    -127.79892460916, 
                    26.900555064736
                ], 
                [
                    -98.037423676715, 
                    -127.28835980509, 
                    29.856414249001
                ], 
                [
                    -97.990301913485, 
                    -126.77779309366, 
                    32.812273433267
                ], 
                [
                    -97.943179911837, 
                    -126.26722828958, 
                    35.768131663857
                ], 
                [
                    -97.896057910189, 
                    -125.75666348551, 
                    38.723991801797
                ], 
                [
                    -97.848935908541, 
                    -125.24609677408, 
                    41.679850032388
                ], 
                [
                    -97.801813906894, 
                    -124.73553197, 
                    44.635708262979
                ], 
                [
                    -97.754691905246, 
                    -124.22496525858, 
                    47.591568400918
                ], 
                [
                    -97.707569903598, 
                    -123.7144004545, 
                    50.547426631509
                ], 
                [
                    -97.660448378787, 
                    -123.20383565042, 
                    53.5032848621
                ], 
                [
                    -97.613326377139, 
                    -122.693268939, 
                    56.459145000039
                ], 
                [
                    -97.566204375491, 
                    -122.18270413492, 
                    59.415005137979
                ], 
                [
                    -97.519082373843, 
                    -121.67213933084, 
                    62.370861461221
                ], 
                [
                    -97.471960372195, 
                    -121.16157261942, 
                    65.32672159916
                ], 
                [
                    -97.424838370547, 
                    -120.65100781534, 
                    68.2825817371
                ], 
                [
                    -97.377716368899, 
                    -120.14044301126, 
                    71.238441875039
                ], 
                [
                    -97.330594367251, 
                    -119.62987629984, 
                    74.194298198281
                ], 
                [
                    -97.283472365603, 
                    -119.11931149576, 
                    77.150158336221
                ], 
                [
                    -97.236350363955, 
                    -118.60874478433, 
                    80.10601847416
                ], 
                [
                    -97.189228839145, 
                    -118.09817998026, 
                    83.0618786121
                ], 
                [
                    -97.142106837497, 
                    -117.58761517618, 
                    86.017734935342
                ], 
                [
                    -97.094984835849, 
                    -117.07704846475, 
                    88.973591258584
                ]
            ], 
            "InstanceCreationTime": [
                "115422.687000", 
                "115422.656000", 
                "115422.703000", 
                "115422.656000", 
                "115422.703000", 
                "115422.656000", 
                "115422.703000", 
                "115422.671000", 
                "115422.703000", 
                "115422.671000", 
                "115422.703000", 
                "115422.671000", 
                "115422.703000", 
                "115422.671000", 
                "115422.703000", 
                "115422.671000", 
                "115422.703000", 
                "115422.671000", 
                "115422.703000", 
                "115422.671000", 
                "115422.718000", 
                "115422.671000", 
                "115422.718000", 
                "115422.687000", 
                "115422.718000", 
                "115422.687000", 
                "115422.718000", 
                "115422.687000", 
                "115422.718000", 
                "115422.687000", 
                "115422.718000", 
                "115422.687000", 
                "115422.718000", 
                "115422.687000", 
                "115422.718000", 
                "115422.687000"
            ], 
            "InstanceNumber": [
                1, 
                2, 
                3, 
                4, 
                5, 
                6, 
                7, 
                8, 
                9, 
                10, 
                11, 
                12, 
                13, 
                14, 
                15, 
                16, 
                17, 
                18, 
                19, 
                20, 
                21, 
                22, 
                23, 
                24, 
                25, 
                26, 
                27, 
                28, 
                29, 
                30, 
                31, 
                32, 
                33, 
                34, 
                35, 
                36
            ], 
            "LargestImagePixelValue": [
                4084, 
                4092, 
                4093, 
                4076, 
                4093, 
                4088, 
                4086, 
                4092, 
                4087, 
                4084, 
                4094, 
                4039, 
                4092, 
                4073, 
                4094, 
                4087, 
                4024, 
                4089, 
                4055, 
                4092, 
                4091, 
                4093, 
                4091, 
                4091, 
                4090, 
                4091, 
                4090, 
                4094, 
                4092, 
                4094, 
                4089, 
                4093, 
                4092, 
                4093, 
                4094, 
                4094
            ], 
            "SliceLocation": [
                -38.785803666788, 
                -35.785802336381, 
                -32.785803530731, 
                -29.785802196579, 
                -26.785802741712, 
                -23.785803936062, 
                -20.785802605655, 
                -17.785803475396, 
                -14.785803080887, 
                -11.785803010986, 
                -8.7858031759952, 
                -5.7858029026857, 
                -2.78580295024, 
                0.21419697444861, 
                3.2141970443496, 
                6.2141971142505, 
                9.2141975050153, 
                12.214196635274, 
                15.214197644817, 
                18.214197099685, 
                21.214196229943, 
                24.214197564095, 
                27.214196694354, 
                30.214195817123, 
                33.214197151275, 
                36.214198160818, 
                39.214195411792, 
                42.214196745944, 
                45.214197755488, 
                48.214198765031, 
                51.214196340614, 
                54.214197350157, 
                57.214198684309, 
                60.214199686362, 
                63.214196937336, 
                66.214194512919
            ], 
            "SmallestImagePixelValue": [
                1, 
                2, 
                15, 
                5, 
                0, 
                12, 
                1, 
                1, 
                3, 
                23, 
                2, 
                6, 
                8, 
                7, 
                1, 
                18, 
                20, 
                5, 
                15, 
                5, 
                17, 
                8, 
                5, 
                12, 
                16, 
                1, 
                1, 
                3, 
                0, 
                0, 
                2, 
                2, 
                2, 
                2, 
                3, 
                2
            ], 
            "WindowCenter": [
                -304.0, 
                -278.0, 
                -282.0, 
                -238.0, 
                -216.0, 
                -168.0, 
                -102.0, 
                -102.0, 
                -124.0, 
                -130.0, 
                -152.0, 
                -176.0, 
