{
  "AcquisitionMatrixPE": 68,
  "AcquisitionNumber": 1,
  "AcquisitionTime": "12:34:52.367500",
  "BandwidthPerPixelPhaseEncode": 31.289,
  "BaseResolution": 68,
  "CoilString": "C:HEA;HEP",
  "ConversionSoftware": "dcm2niix",
  "ConversionSoftwareVersion": "v1.0.20190902",
  "DerivedVendorReportedEchoSpacing": 0.000470002,
  "DeviceSerialNumber": "35450",
  "DwellTime": 3e-06,
  "EchoTime": 0.023,
  "EffectiveEchoSpacing": 0.000470002,
  "FlipAngle": 76,
  "ImageOrientationPatientDICOM": [0.999816, 0.00103812, 0.0191694, 5.21597e-08, 0.998537, -0.0540788],
  "ImageType": [
    "ORIGINAL",
    "PRIMARY",
    "M",
    "ND",
    "MOSAIC"
],
  "ImagingFrequency": 123.219,
  "InPlanePhaseEncodingDirectionDICOM": "COL",
  "InstitutionAddress": "Univeristy_Ave._197_Newark_North_East_US_07102-1814",
  "InstitutionName": "RUBIC",
  "InstitutionalDepartmentName": "Department",
  "MRAcquisitionType": "2D",
  "MagneticFieldStrength": 3,
  "Manufacturer": "Siemens",
  "ManufacturersModelName": "TrioTim",
  "Modality": "MR",
  "PartialFourier": 1,
  "PatientPosition": "HFS",
  "PercentPhaseFOV": 100,
  "PhaseEncodingDirection": "j-",
  "PhaseEncodingSteps": 68,
  "PhaseResolution": 1,
  "PixelBandwidth": 2451,
  "ProcedureStepDescription": "Krekelberg_David",
  "ProtocolName": "ep2d_bold_RestEPI_3",
  "PulseSequenceDetails": "%SiemensSeq%_ep2d_bold",
  "ReceiveCoilName": "HeadMatrix",
  "ReconMatrixPE": 68,
  "RepetitionTime": 2,
  "SAR": 0.163937,
  "ScanOptions": "FS",
  "ScanningSequence": "EP",
  "SequenceName": "_epfid2d1_68",
  "SequenceVariant": "SK",
  "SeriesDescription": "ep2d_bold_RestEPI_3",
  "SeriesNumber": 10,
  "ShimSetting": [2008, -516, -7874, 641, 420, 761, -177, -18],
  "SliceThickness": 2.5,
  "SliceTiming": [1.9525, 1.895, 1.84, 1.785, 1.7275, 1.6725, 1.6175, 1.5625, 1.505, 1.45, 1.395, 1.3375, 1.2825, 1.2275, 1.17, 1.115, 1.06, 1.0025, 0.9475, 0.8925, 0.8375, 0.78, 0.725, 0.67, 0.6125, 0.5575, 0.5025, 0.445, 0.39, 0.335, 0.28, 0.2225, 0.1675, 0.1125, 0.055, 0],
  "SoftwareVersions": "syngo_MR_B19",
  "SpacingBetweenSlices": 3,
  "StationName": "MRC35450",
  "TaskName": "rest",
  "TotalReadoutTime": 0.0314901,
  "TxRefAmp": 349.196,
  "dcmmeta_affine": [
    [-2.9994471073150635, 1.564792029284945e-07, 0.05759232118725777, 101.65129852294922],
    [-0.0031143680680543184, 2.995609998703003, -0.16220654547214508, -80.99466705322266],
    [0.05750805139541626, 0.16223643720149994, 2.995058059692383, -29.214096069335938],
    [0.0, 0.0, 0.0, 1.0]
],
  "dcmmeta_reorient_transform": [
    [0.0, -1.0, 0.0, 67.0],
    [1.0, 0.0, 0.0, 0.0],
    [0.0, 0.0, 1.0, 0.0],
    [0.0, 0.0, 0.0, 1.0]
],
  "dcmmeta_shape": [68, 68, 36, 240],
  "dcmmeta_slice_dim": 2,
  "dcmmeta_version": 0.6,
  "global": {
    "const": {
      "AcquisitionMatrix": [68, 0, 0, 68],
      "AngioFlag": "N",
      "BitsAllocated": 16,
      "BitsStored": 12,
      "Columns": 408,
      "EchoNumbers": 1,
      "EchoTime": 23.0,
      "EchoTrainLength": 1,
      "FlipAngle": 76.0,
      "HighBit": 11,
      "ImageOrientationPatient": [0.9998157121633, 0.00103812269699, 0.01916935086707, 5.2159735e-08, 0.99853667035216, -0.0540788125056],
      "ImagePositionPatient": [-611.55734815661, -629.4943471681, -0.5404292373454],
      "ImageType": [
        "ORIGINAL",
        "PRIMARY",
        "M",
        "ND",
        "MOSAIC"
],
      "ImagedNucleus": "1H",
      "ImagingFrequency": 123.218701,
      "InPlanePhaseEncodingDirection": "COL",
      "MRAcquisitionType": "2D",
      "MagneticFieldStrength": 3.0,
      "Manufacturer": "SIEMENS",
      "ManufacturerModelName": "TrioTim",
      "Modality": "MR",
      "NumberOfAverages": 1.0,
      "NumberOfPhaseEncodingSteps": 68,
      "PercentPhaseFieldOfView": 100.0,
      "PercentSampling": 100.0,
      "PerformedProcedureStepStartTime": "113416.406000",
      "PhotometricInterpretation": "MONOCHROME2",
      "PixelBandwidth": 2451.0,
      "PixelRepresentation": 0,
      "PixelSpacing": [3.0, 3.0],
      "ProtocolName": "ep2d_bold_RestEPI_3",
      "RepetitionTime": 2000.0,
      "Rows": 408,
      "SAR": 0.1639368425775,
      "SamplesPerPixel": 1,
      "ScanOptions": "FS",
      "ScanningSequence": "EP",
      "SequenceName": "*epfid2d1_68",
      "SequenceVariant": "SK",
      "SeriesDescription": "ep2d_bold_RestEPI_3",
      "SeriesNumber": 10,
      "SeriesTime": "123531.734000",
      "SliceLocation": -22.83523714394,
      "SliceThickness": 2.5,
      "SmallestImagePixelValue": 0,
      "SoftwareVersions": "syngo MR B19",
      "SpacingBetweenSlices": 3.0000001046662,
      "SpecificCharacterSet": "ISO_IR 100",
      "StudyID": "1",
      "StudyTime": "113416.359000",
      "TransmitCoilName": "Body",
      "VariableFlipAngleFlag": "N",
      "WindowCenterWidthExplanation": "Algo1",
      "dBdt": 0.0},
    "slices": {}
  },
  "time": {
    "samples": {
      "AcquisitionNumber": [1, 2, 3, 4, 5, 6, 7, 8, 9, 10, 11, 12, 13, 14, 15, 16, 17, 18, 19, 20, 21, 22, 23, 24, 25, 26, 27, 28, 29, 30, 31, 32, 33, 34, 35, 36, 37, 38, 39, 40, 41, 42, 43, 44, 45, 46, 47, 48, 49, 50, 51, 52, 53, 54, 55, 56, 57, 58, 59, 60, 61, 62, 63, 64, 65, 66, 67, 68, 69, 70, 71, 72, 73, 74, 75, 76, 77, 78, 79, 80, 81, 82, 83, 84, 85, 86, 87, 88, 89, 90, 91, 92, 93, 94, 95, 96, 97, 98, 99, 100, 101, 102, 103, 104, 105, 106, 107, 108, 109, 110, 111, 112, 113, 114, 115, 116, 117, 118, 119, 120, 121, 122, 123, 124, 125, 126, 127, 128, 129, 130, 131, 132, 133, 134, 135, 136, 137, 138, 139, 140, 141, 142, 143, 144, 145, 146, 147, 148, 149, 150, 151, 152, 153, 154, 155, 156, 157, 158, 159, 160, 161, 162, 163, 164, 165, 166, 167, 168, 169, 170, 171, 172, 173, 174, 175, 176, 177, 178, 179, 180, 181, 182, 183, 184, 185, 186, 187, 188, 189, 190, 191, 192, 193, 194, 195, 196, 197, 198, 199, 200, 201, 202, 203, 204, 205, 206, 207, 208, 209, 210, 211, 212, 213, 214, 215, 216, 217, 218, 219, 220, 221, 222, 223, 224, 225, 226, 227, 228, 229, 230, 231, 232, 233, 234, 235, 236, 237, 238, 239, 240],
      "AcquisitionTime": ["123452.367500", "123454.375000", "123456.382500", "123458.390000", "123500.400000", "123502.407500", "123504.415000", "123506.422500", "123508.430000", "123510.440000", "123512.447500", "123514.455000", "123516.462500", "123518.470000", "123520.480000", "123522.487500", "123524.495000", "123526.502500", "123528.512500", "123530.520000", "123532.527500", "123534.535000", "123536.542500", "123538.552500", "123540.560000", "123542.567500", "123544.575000", "123546.582500", "123548.592500", "123550.600000", "123552.607500", "123554.615000", "123556.622500", "123558.632500", "123600.640000", "123602.647500", "123604.655000", "123606.665000", "123608.672500", "123610.680000", "123612.687500", "123614.695000", "123616.705000", "123618.712500", "123620.720000", "123622.727500", "123624.735000", "123626.745000", "123628.752500", "123630.760000", "123632.767500", "123634.777500", "123636.785000", "123638.792500", "123640.800000", "123642.807500", "123644.817500", "123646.825000", "123648.832500", "123650.840000", "123652.847500", "123654.857500", "123656.865000", "123658.872500", "123700.880000", "123702.890000", "123704.897500", "123706.905000", "123708.912500", "123710.920000", "123712.930000", "123714.937500", "123716.945000", "123718.952500", "123720.960000", "123722.970000", "123724.977500", "123726.985000", "123728.992500", "123731.000000", "123733.010000", "123735.017500", "123737.025000", "123739.032500", "123741.042500", "123743.050000", "123745.057500", "123747.065000", "123749.072500", "123751.082500", "123753.090000", "123755.097500", "123757.105000", "123759.112500", "123801.122500", "123803.130000", "123805.137500", "123807.145000", "123809.155000", "123811.162500", "123813.170000", "123815.177500", "123817.185000", "123819.195000", "123821.202500", "123823.210000", "123825.217500", "123827.225000", "123829.235000", "123831.242500", "123833.250000", "123835.257500", "123837.267500", "123839.275000", "123841.282500", "123843.290000", "123845.297500", "123847.307500", "123849.315000", "123851.322500", "123853.330000", "123855.337500", "123857.347500", "123859.355000", "123901.362500", "123903.370000", "123905.377500", "123907.387500", "123909.395000", "123911.402500", "123913.410000", "123915.420000", "123917.427500", "123919.435000", "123921.442500", "123923.450000", "123925.460000", "123927.467500", "123929.475000", "123931.482500", "123933.490000", "123935.500000", "123937.507500", "123939.515000", "123941.522500", "123943.532500", "123945.540000", "123947.547500", "123949.555000", "123951.562500", "123953.572500", "123955.580000", "123957.587500", "123959.595000", "124001.602500", "124003.612500", "124005.620000", "124007.627500", "124009.635000", "124011.645000", "124013.652500", "124015.660000", "124017.667500", "124019.675000", "124021.685000", "124023.692500", "124025.700000", "124027.707500", "124029.715000", "124031.725000", "124033.732500", "124035.740000", "124037.747500", "124039.755000", "124041.765000", "124043.772500", "124045.780000", "124047.787500", "124049.797500", "124051.805000", "124053.812500", "124055.820000", "124057.827500", "124059.837500", "124101.845000", "124103.852500", "124105.860000", "124107.867500", "124109.877500", "124111.885000", "124113.892500", "124115.900000", "124117.910000", "124119.917500", "124121.925000", "124123.932500", "124125.940000", "124127.950000", "124129.957500", "124131.965000", "124133.972500", "124135.980000", "124137.990000", "124139.997500", "124142.005000", "124144.012500", "124146.022500", "124148.030000", "124150.037500", "124152.045000", "124154.052500", "124156.062500", "124158.070000", "124200.077500", "124202.085000", "124204.092500", "124206.102500", "124208.110000", "124210.117500", "124212.125000", "124214.135000", "124216.142500", "124218.150000", "124220.157500", "124222.165000", "124224.175000", "124226.182500", "124228.190000", "124230.197500", "124232.205000", "124234.215000", "124236.222500", "124238.230000", "124240.237500", "124242.245000", "124244.255000", "124246.262500", "124248.270000", "124250.277500", "124252.287500"],
      "ContentTime": ["123531.734000", "123531.734000", "123531.734000", "123531.734000", "123531.750000", "123531.750000", "123531.750000", "123531.750000", "123531.750000", "123531.750000", "123531.750000", "123531.765000", "123531.765000", "123531.765000", "123531.765000", "123531.765000", "123531.765000", "123531.765000", "123531.781000", "123531.781000", "123611.718000", "123611.718000", "123611.718000", "123611.734000", "123611.734000", "123611.734000", "123611.734000", "123611.734000", "123611.734000", "123611.734000", "123611.750000", "123611.750000", "123611.750000", "123611.750000", "123611.750000", "123611.750000", "123611.750000", "123611.750000", "123611.765000", "123611.765000", "123651.718000", "123651.718000", "123651.718000", "123651.734000", "123651.734000", "123651.734000", "123651.734000", "123651.734000", "123651.734000", "123651.734000", "123651.750000", "123651.750000", "123651.750000", "123651.750000", "123651.750000", "123651.750000", "123651.750000", "123651.765000", "123651.765000", "123651.765000", "123731.718000", "123731.718000", "123731.718000", "123731.734000", "123731.734000", "123731.734000", "123731.734000", "123731.734000", "123731.734000", "123731.734000", "123731.750000", "123731.750000", "123731.750000", "123731.750000", "123731.750000", "123731.750000", "123731.750000", "123731.750000", "123731.765000", "123731.765000", "123811.718000", "123811.718000", "123811.718000", "123811.734000", "123811.734000", "123811.734000", "123811.734000", "123811.734000", "123811.734000", "123811.734000", "123811.750000", "123811.750000", "123811.750000", "123811.750000", "123811.750000", "123811.750000", "123811.750000", "123811.765000", "123811.765000", "123811.765000", "123851.718000", "123851.718000", "123851.718000", "123851.734000", "123851.734000", "123851.734000", "123851.734000", "123851.734000", "123851.734000", "123851.734000", "123851.750000", "123851.750000", "123851.750000", "123851.750000", "123851.750000", "123851.750000", "123851.750000", "123851.765000", "123851.765000", "123851.765000", "123931.718000", "123931.718000", "123931.718000", "123931.734000", "123931.734000", "123931.734000", "123931.734000", "123931.734000", "123931.734000", "123931.734000", "123931.750000", "123931.750000", "123931.750000", "123931.750000", "123931.750000", "123931.750000", "123931.750000", "123931.765000", "123931.765000", "123931.765000", "124011.718000", "124011.718000", "124011.718000", "124011.734000", "124011.734000", "124011.734000", "124011.734000", "124011.734000", "124011.734000", "124011.734000", "124011.750000", "124011.750000", "124011.750000", "124011.750000", "124011.750000", "124011.750000", "124011.750000", "124011.750000", "124011.765000", "124011.765000", "124051.718000", "124051.718000", "124051.718000", "124051.734000", "124051.734000", "124051.734000", "124051.734000", "124051.734000", "124051.734000", "124051.734000", "124051.750000", "124051.750000", "124051.750000", "124051.750000", "124051.750000", "124051.750000", "124051.750000", "124051.765000", "124051.765000", "124051.765000", "124131.718000", "124131.718000", "124131.718000", "124131.734000", "124131.734000", "124131.734000", "124131.734000", "124131.734000", "124131.734000", "124131.734000", "124131.750000", "124131.750000", "124131.750000", "124131.750000", "124131.750000", "124131.750000", "124131.750000", "124131.765000", "124131.765000", "124131.765000", "124211.718000", "124211.718000", "124211.718000", "124211.734000", "124211.734000", "124211.734000", "124211.734000", "124211.734000", "124211.734000", "124211.734000", "124211.750000", "124211.750000", "124211.750000", "124211.750000", "124211.750000", "124211.750000", "124211.750000", "124211.750000", "124211.765000", "124211.765000", "124251.500000", "124251.500000", "124251.500000", "124251.500000", "124251.500000", "124251.500000", "124251.500000", "124251.515000", "124251.515000", "124251.515000", "124251.515000", "124251.515000", "124251.515000", "124251.515000", "124251.531000", "124251.531000", "124251.531000", "124251.531000", "124251.531000", "124251.531000"],
      "InstanceCreationTime": ["123531.734000", "123531.734000", "123531.734000", "123531.734000", "123531.750000", "123531.750000", "123531.750000", "123531.750000", "123531.750000", "123531.750000", "123531.750000", "123531.765000", "123531.765000", "123531.765000", "123531.765000", "123531.765000", "123531.765000", "123531.765000", "123531.781000", "123531.781000", "123611.718000", "123611.718000", "123611.718000", "123611.734000", "123611.734000", "123611.734000", "123611.734000", "123611.734000", "123611.734000", "123611.734000", "123611.750000", "123611.750000", "123611.750000", "123611.750000", "123611.750000", "123611.750000", "123611.750000", "123611.750000", "123611.765000", "123611.765000", "123651.718000", "123651.718000", "123651.718000", "123651.734000", "123651.734000", "123651.734000", "123651.734000", "123651.734000", "123651.734000", "123651.734000", "123651.750000", "123651.750000", "123651.750000", "123651.750000", "123651.750000", "123651.750000", "123651.750000", "123651.765000", "123651.765000", "123651.765000", "123731.718000", "123731.718000", "123731.718000", "123731.734000", "123731.734000", "123731.734000", "123731.734000", "123731.734000", "123731.734000", "123731.734000", "123731.750000", "123731.750000", "123731.750000", "123731.750000", "123731.750000", "123731.750000", "123731.750000", "123731.750000", "123731.765000", "123731.765000", "123811.718000", "123811.718000", "123811.718000", "123811.734000", "123811.734000", "123811.734000", "123811.734000", "123811.734000", "123811.734000", "123811.734000", "123811.750000", "123811.750000", "123811.750000", "123811.750000", "123811.750000", "123811.750000", "123811.750000", "123811.765000", "123811.765000", "123811.765000", "123851.718000", "123851.718000", "123851.718000", "123851.734000", "123851.734000", "123851.734000", "123851.734000", "123851.734000", "123851.734000", "123851.734000", "123851.750000", "123851.750000", "123851.750000", "123851.750000", "123851.750000", "123851.750000", "123851.750000", "123851.765000", "123851.765000", "123851.765000", "123931.718000", "123931.718000", "123931.718000", "123931.734000", "123931.734000", "123931.734000", "123931.734000", "123931.734000", "123931.734000", "123931.734000", "123931.750000", "123931.750000", "123931.750000", "123931.750000", "123931.750000", "123931.750000", "123931.750000", "123931.765000", "123931.765000", "123931.765000", "124011.718000", "124011.718000", "124011.718000", "124011.734000", "124011.734000", "124011.734000", "124011.734000", "124011.734000", "124011.734000", "124011.734000", "124011.750000", "124011.750000", "124011.750000", "124011.750000", "124011.750000", "124011.750000", "124011.750000", "124011.750000", "124011.765000", "124011.765000", "124051.718000", "124051.718000", "124051.718000", "124051.734000", "124051.734000", "124051.734000", "124051.734000", "124051.734000", "124051.734000", "124051.734000", "124051.750000", "124051.750000", "124051.750000", "124051.750000", "124051.750000", "124051.750000", "124051.750000", "124051.765000", "124051.765000", "124051.765000", "124131.718000", "124131.718000", "124131.718000", "124131.734000", "124131.734000", "124131.734000", "124131.734000", "124131.734000", "124131.734000", "124131.734000", "124131.750000", "124131.750000", "124131.750000", "124131.750000", "124131.750000", "124131.750000", "124131.750000", "124131.765000", "124131.765000", "124131.765000", "124211.718000", "124211.718000", "124211.718000", "124211.734000", "124211.734000", "124211.734000", "124211.734000", "124211.734000", "124211.734000", "124211.734000", "124211.750000", "124211.750000", "124211.750000", "124211.750000", "124211.750000", "124211.750000", "124211.750000", "124211.750000", "124211.765000", "124211.765000", "124251.500000", "124251.500000", "124251.500000", "124251.500000", "124251.500000", "124251.500000", "124251.500000", "124251.515000", "124251.515000", "124251.515000", "124251.515000", "124251.515000", "124251.515000", "124251.515000", "124251.531000", "124251.531000", "124251.531000", "124251.531000", "124251.531000", "124251.531000"],
      "InstanceNumber": [1, 2, 3, 4, 5, 6, 7, 8, 9, 10, 11, 12, 13, 14, 15, 16, 17, 18, 19, 20, 21, 22, 23, 24, 25, 26, 27, 28, 29, 30, 31, 32, 33, 34, 35, 36, 37, 38, 39, 40, 41, 42, 43, 44, 45, 46, 47, 48, 49, 50, 51, 52, 53, 54, 55, 56, 57, 58, 59, 60, 61, 62, 63, 64, 65, 66, 67, 68, 69, 70, 71, 72, 73, 74, 75, 76, 77, 78, 79, 80, 81, 82, 83, 84, 85, 86, 87, 88, 89, 90, 91, 92, 93, 94, 95, 96, 97, 98, 99, 100, 101, 102, 103, 104, 105, 106, 107, 108, 109, 110, 111, 112, 113, 114, 115, 116, 117, 118, 119, 120, 121, 122, 123, 124, 125, 126, 127, 128, 129, 130, 131, 132, 133, 134, 135, 136, 137, 138, 139, 140, 141, 142, 143, 144, 145, 146, 147, 148, 149, 150, 151, 152, 153, 154, 155, 156, 157, 158, 159, 160, 161, 162, 163, 164, 165, 166, 167, 168, 169, 170, 171, 172, 173, 174, 175, 176, 177, 178, 179, 180, 181, 182, 183, 184, 185, 186, 187, 188, 189, 190, 191, 192, 193, 194, 195, 196, 197, 198, 199, 200, 201, 202, 203, 204, 205, 206, 207, 208, 209, 210, 211, 212, 213, 214, 215, 216, 217, 218, 219, 220, 221, 222, 223, 224, 225, 226, 227, 228, 229, 230, 231, 232, 233, 234, 235, 236, 237, 238, 239, 240],
      "LargestImagePixelValue": [2289, 2146, 2285, 2198, 1976, 2196, 1898, 2155, 1852, 1927, 1647, 1651, 1738, 1653, 1875, 1670, 1805, 1889, 1940, 1632, 1705, 1693, 1687, 1637, 1702, 1655, 1632, 1726, 1969, 1667, 1769, 1684, 1652, 1654, 1805, 1675, 1691, 1687, 1857, 1692, 1775, 1657, 1672, 1868, 2084, 1665, 1640, 1699, 1803, 1687, 1759, 1685, 1880, 1654, 1877, 1682, 1843, 1684, 1877, 1666, 1728, 1696, 1678, 1701, 1736, 1728, 1707, 1939, 1704, 2140, 1962, 2232, 2022, 2157, 2274, 1690, 1888, 1658, 1838, 1670, 1806, 1690, 1717, 1711, 1680, 1695, 1724, 1722, 1678, 1701, 1864, 1982, 1817, 1690, 1868, 1694, 1714, 1707, 1727, 1720, 1709, 1709, 1726, 2274, 1849, 1708, 1717, 1714, 1712, 1721, 1703, 2179, 2218, 2177, 2299, 2071, 1819, 1979, 1810, 1724, 1721, 1699, 1681, 1698, 1701, 1703, 1709, 1718, 1696, 1976, 1720, 1687, 1722, 2186, 2246, 2208, 2286, 2382, 1683, 1701, 1704, 1744, 1698, 1961, 1728, 1832, 1731, 1889, 1959, 2066, 1706, 1883, 1678, 1779, 2257, 1828, 1696, 2127, 2705, 2435, 1737, 1669, 1658, 1646, 1655, 1670, 1660, 1897, 1662, 2123, 2019, 1963, 2137, 2099, 1653, 1662, 1880, 2158, 1675, 1653, 1710, 1937, 2017, 1685, 1691, 1901, 2011, 1861, 1873, 1740, 2404, 2462, 1817, 2149, 1739, 1699, 1698, 1698, 1704, 1705, 1713, 1690, 1842, 1715, 1683, 1714, 1884, 1678, 1738, 1690, 1686, 1675, 1702, 1733, 1706, 1822, 1706, 1729, 1973, 1914, 1868, 1649, 1690, 1809, 1667, 1695, 1761, 1765, 1718, 1686, 1708, 1712, 1726, 1730, 1818, 1739, 1688, 1726, 1786, 1702],
      "WindowCenter": [801.0, 796.0, 795.0, 794.0, 794.0, 794.0, 793.0, 795.0, 793.0, 794.0, 793.0, 794.0, 794.0, 794.0, 796.0, 796.0, 796.0, 796.0, 794.0, 793.0, 794.0, 795.0, 796.0, 796.0, 796.0, 795.0, 796.0, 797.0, 798.0, 796.0, 797.0, 796.0, 796.0, 797.0, 797.0, 796.0, 796.0, 796.0, 798.0, 798.0, 797.0, 796.0, 797.0, 797.0, 797.0, 795.0, 796.0, 796.0, 797.0, 796.0, 798.0, 797.0, 797.0, 797.0, 798.0, 796.0, 797.0, 796.0, 797.0, 795.0, 796.0, 797.0, 797.0, 798.0, 799.0, 801.0, 801.0, 800.0, 798.0, 799.0, 798.0, 799.0, 797.0, 797.0, 797.0, 795.0, 797.0, 796.0, 798.0, 797.0, 798.0, 798.0, 797.0, 797.0, 797.0, 797.0, 798.0, 799.0, 798.0, 799.0, 799.0, 798.0, 797.0, 798.0, 799.0, 797.0, 798.0, 799.0, 799.0, 798.0, 798.0, 800.0, 801.0, 800.0, 797.0, 798.0, 799.0, 800.0, 801.0, 802.0, 799.0, 800.0, 799.0, 799.0, 799.0, 798.0, 797.0, 798.0, 797.0, 798.0, 798.0, 798.0, 798.0, 798.0, 799.0, 799.0, 798.0, 799.0, 801.0, 803.0, 802.0, 800.0, 800.0, 801.0, 801.0, 801.0, 800.0, 800.0, 797.0, 798.0, 800.0, 801.0, 800.0, 800.0, 798.0, 801.0, 802.0, 802.0, 800.0, 800.0, 801.0, 804.0, 805.0, 809.0, 808.0, 805.0, 793.0, 787.0, 788.0, 794.0, 804.0, 803.0, 800.0, 800.0, 801.0, 804.0, 803.0, 805.0, 803.0, 804.0, 803.0, 804.0, 802.0, 802.0, 800.0, 801.0, 803.0, 802.0, 801.0, 803.0, 804.0, 804.0, 803.0, 802.0, 804.0, 805.0, 803.0, 810.0, 813.0, 813.0, 812.0, 815.0, 813.0, 810.0, 804.0, 803.0, 806.0, 807.0, 808.0, 808.0, 810.0, 809.0, 809.0, 807.0, 808.0, 808.0, 809.0, 806.0, 808.0, 807.0, 807.0, 807.0, 807.0, 808.0, 806.0, 808.0, 813.0, 818.0, 815.0, 811.0, 807.0, 805.0, 808.0, 807.0, 808.0, 811.0, 814.0, 808.0, 808.0, 810.0, 812.0, 814.0, 814.0, 813.0, 813.0, 814.0, 813.0, 813.0, 812.0, 809.0],
      "WindowWidth": [1718.0, 1705.0, 1701.0, 1699.0, 1698.0, 1700.0, 1696.0, 1701.0, 1696.0, 1698.0, 1695.0, 1698.0, 1697.0, 1698.0, 1703.0, 1704.0, 1704.0, 1703.0, 1699.0, 1695.0, 1700.0, 1701.0, 1703.0, 1703.0, 1703.0, 1701.0, 1704.0, 1706.0, 1709.0, 1703.0, 1705.0, 1703.0, 1704.0, 1707.0, 1706.0, 1703.0, 1702.0, 1704.0, 1710.0, 1709.0, 1707.0, 1702.0, 1707.0, 1707.0, 1707.0, 1700.0, 1704.0, 1704.0, 1705.0, 1704.0, 1709.0, 1706.0, 1707.0, 1705.0, 1708.0, 1703.0, 1707.0, 1704.0, 1707.0, 1701.0, 1704.0, 1705.0, 1705.0, 1707.0, 1713.0, 1717.0, 1717.0, 1716.0, 1708.0, 1714.0, 1710.0, 1712.0, 1708.0, 1709.0, 1708.0, 1701.0, 1707.0, 1705.0, 1709.0, 1706.0, 1711.0, 1708.0, 1708.0, 1707.0, 1707.0, 1706.0, 1709.0, 1711.0, 1709.0, 1712.0, 1713.0, 1711.0, 1707.0, 1708.0, 1712.0, 1707.0, 1710.0, 1712.0, 1712.0, 1710.0, 1708.0, 1715.0, 1716.0, 1717.0, 1706.0, 1708.0, 1713.0, 1716.0, 1718.0, 1719.0, 1712.0, 1715.0, 1714.0, 1715.0, 1714.0, 1710.0, 1708.0, 1711.0, 1707.0, 1710.0, 1711.0, 1710.0, 1710.0, 1711.0, 1712.0, 1710.0, 1710.0, 1713.0, 1718.0, 1725.0, 1719.0, 1715.0, 1713.0, 1720.0, 1720.0, 1719.0, 1718.0, 1716.0, 1708.0, 1710.0, 1715.0, 1717.0, 1714.0, 1715.0, 1710.0, 1717.0, 1721.0, 1721.0, 1715.0, 1715.0, 1716.0, 1727.0, 1728.0, 1744.0, 1746.0, 1739.0, 1717.0, 1704.0, 1708.0, 1717.0, 1723.0, 1718.0, 1711.0, 1712.0, 1715.0, 1721.0, 1722.0, 1728.0, 1721.0, 1724.0, 1721.0, 1725.0, 1721.0, 1720.0, 1712.0, 1715.0, 1719.0, 1720.0, 1713.0, 1721.0, 1723.0, 1723.0, 1722.0, 1717.0, 1725.0, 1727.0, 1722.0, 1740.0, 1747.0, 1749.0, 1748.0, 1756.0, 1747.0, 1737.0, 1719.0, 1717.0, 1724.0, 1726.0, 1728.0, 1728.0, 1734.0, 1732.0, 1732.0, 1728.0, 1729.0, 1729.0, 1733.0, 1725.0, 1731.0, 1728.0, 1726.0, 1728.0, 1728.0, 1729.0, 1726.0, 1732.0, 1742.0, 1759.0, 1753.0, 1738.0, 1726.0, 1719.0, 1729.0, 1730.0, 1729.0, 1739.0, 1745.0, 1729.0, 1726.0, 1733.0, 1737.0, 1743.0, 1743.0, 1742.0, 1741.0, 1742.0, 1739.0, 1743.0, 1739.0, 1731.0]
    },
    "slices": {}
  }
}