{
  "AcquisitionMatrixPE": 68,
  "AcquisitionNumber": 1,
  "AcquisitionTime": "12:14:40.050000",
  "BandwidthPerPixelPhaseEncode": 31.289,
  "BaseResolution": 68,
  "CoilString": "C:HEA;HEP",
  "ConversionSoftware": "dcm2niix",
  "ConversionSoftwareVersion": "v1.0.20190902",
  "DerivedVendorReportedEchoSpacing": 0.000470002,
  "DeviceSerialNumber": "35450",
  "DwellTime": 3e-06,
  "EchoTime": 0.023,
  "EffectiveEchoSpacing": 0.000470002,
  "FlipAngle": 76,
  "ImageOrientationPatientDICOM": [0.999816, 0.00103812, 0.0191694, 5.21597e-08, 0.998537, -0.0540788],
  "ImageType": [
    "ORIGINAL",
    "PRIMARY",
    "M",
    "ND",
    "MOSAIC"
],
  "ImagingFrequency": 123.219,
  "InPlanePhaseEncodingDirectionDICOM": "COL",
  "InstitutionAddress": "Univeristy_Ave._197_Newark_North_East_US_07102-1814",
  "InstitutionName": "RUBIC",
  "InstitutionalDepartmentName": "Department",
  "MRAcquisitionType": "2D",
  "MagneticFieldStrength": 3,
  "Manufacturer": "Siemens",
  "ManufacturersModelName": "TrioTim",
  "Modality": "MR",
  "PartialFourier": 1,
  "PatientPosition": "HFS",
  "PercentPhaseFOV": 100,
  "PhaseEncodingDirection": "j-",
  "PhaseEncodingSteps": 68,
  "PhaseResolution": 1,
  "PixelBandwidth": 2451,
  "ProcedureStepDescription": "Krekelberg_David",
  "ProtocolName": "ep2d_bold_CardGameEPI_2",
  "PulseSequenceDetails": "%SiemensSeq%_ep2d_bold",
  "ReceiveCoilName": "HeadMatrix",
  "ReconMatrixPE": 68,
  "RepetitionTime": 2,
  "SAR": 0.163972,
  "ScanOptions": "FS",
  "ScanningSequence": "EP",
  "SequenceName": "_epfid2d1_68",
  "SequenceVariant": "SK",
  "SeriesDescription": "ep2d_bold_CardGameEPI_2",
  "SeriesNumber": 8,
  "ShimSetting": [2008, -516, -7874, 641, 420, 761, -177, -18],
  "SliceThickness": 2.5,
  "SliceTiming": [1.9525, 1.8975, 1.8425, 1.785, 1.73, 1.675, 1.6175, 1.5625, 1.5075, 1.45, 1.395, 1.34, 1.2825, 1.2275, 1.1725, 1.1175, 1.06, 1.005, 0.95, 0.8925, 0.8375, 0.7825, 0.725, 0.67, 0.615, 0.5575, 0.5025, 0.4475, 0.3925, 0.335, 0.28, 0.225, 0.1675, 0.1125, 0.0575, 0],
  "SoftwareVersions": "syngo_MR_B19",
  "SpacingBetweenSlices": 3,
  "StationName": "MRC35450",
  "TaskName": "cardgame",
  "TotalReadoutTime": 0.0314901,
  "TxRefAmp": 349.196,
  "dcmmeta_affine": [
    [-2.9994471073150635, 1.564792029284945e-07, 0.05759232118725777, 101.65129852294922],
    [-0.0031143680680543184, 2.995609998703003, -0.16220654547214508, -80.99466705322266],
    [0.05750805139541626, 0.16223643720149994, 2.995058059692383, -29.214096069335938],
    [0.0, 0.0, 0.0, 1.0]
],
  "dcmmeta_reorient_transform": [
    [0.0, -1.0, 0.0, 67.0],
    [1.0, 0.0, 0.0, 0.0],
    [0.0, 0.0, 1.0, 0.0],
    [0.0, 0.0, 0.0, 1.0]
],
  "dcmmeta_shape": [68, 68, 36, 258],
  "dcmmeta_slice_dim": 2,
  "dcmmeta_version": 0.6,
  "global": {
    "const": {
      "AcquisitionMatrix": [68, 0, 0, 68],
      "AngioFlag": "N",
      "BitsAllocated": 16,
      "BitsStored": 12,
      "Columns": 408,
      "EchoNumbers": 1,
      "EchoTime": 23.0,
      "EchoTrainLength": 1,
      "FlipAngle": 76.0,
      "HighBit": 11,
      "ImageOrientationPatient": [0.9998157121633, 0.00103812269699, 0.01916935086707, 5.2159735e-08, 0.99853667035216, -0.0540788125056],
      "ImagePositionPatient": [-611.55734815661, -629.4943471681, -0.5404292373454],
      "ImageType": [
        "ORIGINAL",
        "PRIMARY",
        "M",
        "ND",
        "MOSAIC"
],
      "ImagedNucleus": "1H",
      "ImagingFrequency": 123.218673,
      "InPlanePhaseEncodingDirection": "COL",
      "MRAcquisitionType": "2D",
      "MagneticFieldStrength": 3.0,
      "Manufacturer": "SIEMENS",
      "ManufacturerModelName": "TrioTim",
      "Modality": "MR",
      "NumberOfAverages": 1.0,
      "NumberOfPhaseEncodingSteps": 68,
      "PercentPhaseFieldOfView": 100.0,
      "PercentSampling": 100.0,
      "PerformedProcedureStepStartTime": "113416.406000",
      "PhotometricInterpretation": "MONOCHROME2",
      "PixelBandwidth": 2451.0,
      "PixelRepresentation": 0,
      "PixelSpacing": [3.0, 3.0],
      "ProtocolName": "ep2d_bold_CardGameEPI_2",
      "RepetitionTime": 2000.0,
      "Rows": 408,
      "SAR": 0.1639719153947,
      "SamplesPerPixel": 1,
      "ScanOptions": "FS",
      "ScanningSequence": "EP",
      "SequenceName": "*epfid2d1_68",
      "SequenceVariant": "SK",
      "SeriesDescription": "ep2d_bold_CardGameEPI_2",
      "SeriesNumber": 8,
      "SeriesTime": "121529.828000",
      "SliceLocation": -22.83523714394,
      "SliceThickness": 2.5,
      "SmallestImagePixelValue": 0,
      "SoftwareVersions": "syngo MR B19",
      "SpacingBetweenSlices": 3.0000001046662,
      "SpecificCharacterSet": "ISO_IR 100",
      "StudyID": "1",
      "StudyTime": "113416.359000",
      "TransmitCoilName": "Body",
      "VariableFlipAngleFlag": "N",
      "WindowCenterWidthExplanation": "Algo1",
      "dBdt": 0.0},
    "slices": {}
  },
  "time": {
    "samples": {
      "AcquisitionNumber": [1, 2, 3, 4, 5, 6, 7, 8, 9, 10, 11, 12, 13, 14, 15, 16, 17, 18, 19, 20, 21, 22, 23, 24, 25, 26, 27, 28, 29, 30, 31, 32, 33, 34, 35, 36, 37, 38, 39, 40, 41, 42, 43, 44, 45, 46, 47, 48, 49, 50, 51, 52, 53, 54, 55, 56, 57, 58, 59, 60, 61, 62, 63, 64, 65, 66, 67, 68, 69, 70, 71, 72, 73, 74, 75, 76, 77, 78, 79, 80, 81, 82, 83, 84, 85, 86, 87, 88, 89, 90, 91, 92, 93, 94, 95, 96, 97, 98, 99, 100, 101, 102, 103, 104, 105, 106, 107, 108, 109, 110, 111, 112, 113, 114, 115, 116, 117, 118, 119, 120, 121, 122, 123, 124, 125, 126, 127, 128, 129, 130, 131, 132, 133, 134, 135, 136, 137, 138, 139, 140, 141, 142, 143, 144, 145, 146, 147, 148, 149, 150, 151, 152, 153, 154, 155, 156, 157, 158, 159, 160, 161, 162, 163, 164, 165, 166, 167, 168, 169, 170, 171, 172, 173, 174, 175, 176, 177, 178, 179, 180, 181, 182, 183, 184, 185, 186, 187, 188, 189, 190, 191, 192, 193, 194, 195, 196, 197, 198, 199, 200, 201, 202, 203, 204, 205, 206, 207, 208, 209, 210, 211, 212, 213, 214, 215, 216, 217, 218, 219, 220, 221, 222, 223, 224, 225, 226, 227, 228, 229, 230, 231, 232, 233, 234, 235, 236, 237, 238, 239, 240, 241, 242, 243, 244, 245, 246, 247, 248, 249, 250, 251, 252, 253, 254, 255, 256, 257, 258],
      "AcquisitionTime": ["121440.050000", "121442.057500", "121444.067500", "121446.075000", "121448.082500", "121450.090000", "121452.097500", "121454.107500", "121456.115000", "121458.122500", "121500.130000", "121502.137500", "121504.147500", "121506.155000", "121508.162500", "121510.170000", "121512.180000", "121514.187500", "121516.195000", "121518.202500", "121520.210000", "121522.220000", "121524.227500", "121526.235000", "121528.242500", "121530.250000", "121532.260000", "121534.267500", "121536.275000", "121538.282500", "121540.292500", "121542.300000", "121544.307500", "121546.315000", "121548.322500", "121550.332500", "121552.340000", "121554.347500", "121556.355000", "121558.362500", "121600.372500", "121602.380000", "121604.387500", "121606.395000", "121608.402500", "121610.412500", "121612.420000", "121614.427500", "121616.435000", "121618.445000", "121620.452500", "121622.460000", "121624.467500", "121626.475000", "121628.485000", "121630.492500", "121632.500000", "121634.507500", "121636.515000", "121638.525000", "121640.532500", "121642.540000", "121644.547500", "121646.557500", "121648.565000", "121650.572500", "121652.580000", "121654.587500", "121656.597500", "121658.605000", "121700.612500", "121702.620000", "121704.627500", "121706.637500", "121708.645000", "121710.652500", "121712.660000", "121714.670000", "121716.677500", "121718.685000", "121720.692500", "121722.700000", "121724.710000", "121726.717500", "121728.725000", "121730.732500", "121732.740000", "121734.750000", "121736.757500", "121738.765000", "121740.772500", "121742.780000", "121744.790000", "121746.797500", "121748.805000", "121750.812500", "121752.822500", "121754.830000", "121756.837500", "121758.845000", "121800.852500", "121802.862500", "121804.870000", "121806.877500", "121808.885000", "121810.892500", "121812.902500", "121814.910000", "121816.917500", "121818.925000", "121820.935000", "121822.942500", "121824.950000", "121826.957500", "121828.965000", "121830.975000", "121832.982500", "121834.990000", "121836.997500", "121839.005000", "121841.015000", "121843.022500", "121845.030000", "121847.037500", "121849.047500", "121851.055000", "121853.062500", "121855.070000", "121857.077500", "121859.087500", "121901.095000", "121903.102500", "121905.110000", "121907.117500", "121909.127500", "121911.135000", "121913.142500", "121915.150000", "121917.157500", "121919.167500", "121921.175000", "121923.182500", "121925.190000", "121927.200000", "121929.207500", "121931.215000", "121933.222500", "121935.230000", "121937.240000", "121939.247500", "121941.255000", "121943.262500", "121945.270000", "121947.280000", "121949.287500", "121951.295000", "121953.302500", "121955.312500", "121957.320000", "121959.327500", "122001.335000", "122003.342500", "122005.352500", "122007.360000", "122009.367500", "122011.375000", "122013.382500", "122015.392500", "122017.400000", "122019.407500", "122021.415000", "122023.425000", "122025.432500", "122027.440000", "122029.447500", "122031.455000", "122033.465000", "122035.472500", "122037.480000", "122039.487500", "122041.495000", "122043.505000", "122045.512500", "122047.520000", "122049.527500", "122051.535000", "122053.545000", "122055.552500", "122057.560000", "122059.567500", "122101.577500", "122103.585000", "122105.592500", "122107.600000", "122109.607500", "122111.617500", "122113.625000", "122115.632500", "122117.640000", "122119.647500", "122121.657500", "122123.665000", "122125.672500", "122127.680000", "122129.690000", "122131.697500", "122133.705000", "122135.712500", "122137.720000", "122139.730000", "122141.737500", "122143.745000", "122145.752500", "122147.760000", "122149.770000", "122151.777500", "122153.785000", "122155.792500", "122157.802500", "122159.810000", "122201.817500", "122203.825000", "122205.832500", "122207.842500", "122209.850000", "122211.857500", "122213.865000", "122215.872500", "122217.882500", "122219.890000", "122221.897500", "122223.905000", "122225.915000", "122227.922500", "122229.930000", "122231.937500", "122233.945000", "122235.955000", "122237.962500", "122239.970000", "122241.977500", "122243.985000", "122245.995000", "122248.002500", "122250.010000", "122252.017500", "122254.025000", "122256.035000", "122258.042500", "122300.050000", "122302.057500", "122304.067500", "122306.075000", "122308.082500", "122310.090000", "122312.097500", "122314.107500", "122316.115000"],
      "ContentTime": ["121529.828000", "121529.843000", "121529.843000", "121529.843000", "121529.843000", "121529.843000", "121529.843000", "121529.843000", "121529.859000", "121529.859000", "121529.859000", "121529.859000", "121529.859000", "121529.859000", "121529.859000", "121529.875000", "121529.875000", "121529.875000", "121529.875000", "121529.875000", "121529.875000", "121529.875000", "121529.890000", "121529.890000", "121529.890000", "121609.828000", "121609.828000", "121609.843000", "121609.843000", "121609.843000", "121609.843000", "121609.843000", "121609.843000", "121609.843000", "121609.843000", "121609.859000", "121609.859000", "121609.859000", "121609.859000", "121609.859000", "121609.859000", "121609.859000", "121609.875000", "121609.875000", "121609.875000", "121649.828000", "121649.828000", "121649.843000", "121649.843000", "121649.843000", "121649.843000", "121649.843000", "121649.843000", "121649.843000", "121649.843000", "121649.859000", "121649.859000", "121649.859000", "121649.859000", "121649.859000", "121649.859000", "121649.875000", "121649.875000", "121649.875000", "121649.875000", "121729.828000", "121729.828000", "121729.828000", "121729.843000", "121729.843000", "121729.843000", "121729.843000", "121729.843000", "121729.843000", "121729.843000", "121729.859000", "121729.859000", "121729.859000", "121729.859000", "121729.859000", "121729.875000", "121729.875000", "121729.875000", "121729.875000", "121729.875000", "121809.828000", "121809.828000", "121809.828000", "121809.843000", "121809.843000", "121809.843000", "121809.843000", "121809.843000", "121809.843000", "121809.843000", "121809.859000", "121809.859000", "121809.859000", "121809.859000", "121809.859000", "121809.859000", "121809.859000", "121809.875000", "121809.875000", "121809.875000", "121849.828000", "121849.828000", "121849.828000", "121849.843000", "121849.843000", "121849.843000", "121849.843000", "121849.843000", "121849.843000", "121849.843000", "121849.859000", "121849.859000", "121849.859000", "121849.859000", "121849.859000", "121849.859000", "121849.859000", "121849.875000", "121849.875000", "121849.875000", "121929.828000", "121929.828000", "121929.843000", "121929.843000", "121929.843000", "121929.843000", "121929.843000", "121929.843000", "121929.843000", "121929.843000", "121929.859000", "121929.859000", "121929.859000", "121929.859000", "121929.859000", "121929.859000", "121929.859000", "121929.875000", "121929.875000", "121929.875000", "122009.828000", "122009.828000", "122009.843000", "122009.843000", "122009.843000", "122009.843000", "122009.843000", "122009.843000", "122009.843000", "122009.843000", "122009.859000", "122009.859000", "122009.859000", "122009.859000", "122009.859000", "122009.859000", "122009.859000", "122009.875000", "122009.875000", "122009.875000", "122049.828000", "122049.828000", "122049.828000", "122049.843000", "122049.843000", "122049.843000", "122049.843000", "122049.843000", "122049.843000", "122049.843000", "122049.859000", "122049.859000", "122049.859000", "122049.859000", "122049.859000", "122049.859000", "122049.859000", "122049.859000", "122049.875000", "122049.875000", "122129.828000", "122129.828000", "122129.828000", "122129.843000", "122129.843000", "122129.843000", "122129.843000", "122129.843000", "122129.843000", "122129.843000", "122129.859000", "122129.859000", "122129.859000", "122129.859000", "122129.859000", "122129.859000", "122129.859000", "122129.875000", "122129.875000", "122129.875000", "122209.828000", "122209.828000", "122209.828000", "122209.843000", "122209.843000", "122209.843000", "122209.843000", "122209.843000", "122209.843000", "122209.843000", "122209.859000", "122209.859000", "122209.859000", "122209.859000", "122209.859000", "122209.859000", "122209.859000", "122209.859000", "122209.875000", "122209.875000", "122249.828000", "122249.828000", "122249.828000", "122249.843000", "122249.843000", "122249.843000", "122249.843000", "122249.843000", "122249.843000", "122249.843000", "122249.859000", "122249.859000", "122249.859000", "122249.859000", "122249.859000", "122249.859000", "122249.859000", "122249.875000", "122249.875000", "122249.875000", "122315.390000", "122315.406000", "122315.406000", "122315.406000", "122315.406000", "122315.406000", "122315.406000", "122315.406000", "122315.421000", "122315.421000", "122315.421000", "122315.421000", "122315.421000"],
      "InstanceCreationTime": ["121529.828000", "121529.843000", "121529.843000", "121529.843000", "121529.843000", "121529.843000", "121529.843000", "121529.843000", "121529.859000", "121529.859000", "121529.859000", "121529.859000", "121529.859000", "121529.859000", "121529.859000", "121529.875000", "121529.875000", "121529.875000", "121529.875000", "121529.875000", "121529.875000", "121529.875000", "121529.890000", "121529.890000", "121529.890000", "121609.828000", "121609.828000", "121609.843000", "121609.843000", "121609.843000", "121609.843000", "121609.843000", "121609.843000", "121609.843000", "121609.843000", "121609.859000", "121609.859000", "121609.859000", "121609.859000", "121609.859000", "121609.859000", "121609.859000", "121609.875000", "121609.875000", "121609.875000", "121649.828000", "121649.828000", "121649.843000", "121649.843000", "121649.843000", "121649.843000", "121649.843000", "121649.843000", "121649.843000", "121649.843000", "121649.859000", "121649.859000", "121649.859000", "121649.859000", "121649.859000", "121649.859000", "121649.875000", "121649.875000", "121649.875000", "121649.875000", "121729.828000", "121729.828000", "121729.828000", "121729.843000", "121729.843000", "121729.843000", "121729.843000", "121729.843000", "121729.843000", "121729.843000", "121729.859000", "121729.859000", "121729.859000", "121729.859000", "121729.859000", "121729.875000", "121729.875000", "121729.875000", "121729.875000", "121729.875000", "121809.828000", "121809.828000", "121809.828000", "121809.843000", "121809.843000", "121809.843000", "121809.843000", "121809.843000", "121809.843000", "121809.843000", "121809.859000", "121809.859000", "121809.859000", "121809.859000", "121809.859000", "121809.859000", "121809.859000", "121809.875000", "121809.875000", "121809.875000", "121849.828000", "121849.828000", "121849.828000", "121849.843000", "121849.843000", "121849.843000", "121849.843000", "121849.843000", "121849.843000", "121849.843000", "121849.859000", "121849.859000", "121849.859000", "121849.859000", "121849.859000", "121849.859000", "121849.859000", "121849.875000", "121849.875000", "121849.875000", "121929.828000", "121929.828000", "121929.843000", "121929.843000", "121929.843000", "121929.843000", "121929.843000", "121929.843000", "121929.843000", "121929.843000", "121929.859000", "121929.859000", "121929.859000", "121929.859000", "121929.859000", "121929.859000", "121929.859000", "121929.875000", "121929.875000", "121929.875000", "122009.828000", "122009.828000", "122009.843000", "122009.843000", "122009.843000", "122009.843000", "122009.843000", "122009.843000", "122009.843000", "122009.843000", "122009.859000", "122009.859000", "122009.859000", "122009.859000", "122009.859000", "122009.859000", "122009.859000", "122009.875000", "122009.875000", "122009.875000", "122049.828000", "122049.828000", "122049.828000", "122049.843000", "122049.843000", "122049.843000", "122049.843000", "122049.843000", "122049.843000", "122049.843000", "122049.859000", "122049.859000", "122049.859000", "122049.859000", "122049.859000", "122049.859000", "122049.859000", "122049.859000", "122049.875000", "122049.875000", "122129.828000", "122129.828000", "122129.828000", "122129.843000", "122129.843000", "122129.843000", "122129.843000", "122129.843000", "122129.843000", "122129.843000", "122129.859000", "122129.859000", "122129.859000", "122129.859000", "122129.859000", "122129.859000", "122129.859000", "122129.875000", "122129.875000", "122129.875000", "122209.828000", "122209.828000", "122209.828000", "122209.843000", "122209.843000", "122209.843000", "122209.843000", "122209.843000", "122209.843000", "122209.843000", "122209.859000", "122209.859000", "122209.859000", "122209.859000", "122209.859000", "122209.859000", "122209.859000", "122209.859000", "122209.875000", "122209.875000", "122249.828000", "122249.828000", "122249.828000", "122249.843000", "122249.843000", "122249.843000", "122249.843000", "122249.843000", "122249.843000", "122249.843000", "122249.859000", "122249.859000", "122249.859000", "122249.859000", "122249.859000", "122249.859000", "122249.859000", "122249.875000", "122249.875000", "122249.875000", "122315.390000", "122315.406000", "122315.406000", "122315.406000", "122315.406000", "122315.406000", "122315.406000", "122315.406000", "122315.421000", "122315.421000", "122315.421000", "122315.421000", "122315.421000"],
      "InstanceNumber": [1, 2, 3, 4, 5, 6, 7, 8, 9, 10, 11, 12, 13, 14, 15, 16, 17, 18, 19, 20, 21, 22, 23, 24, 25, 26, 27, 28, 29, 30, 31, 32, 33, 34, 35, 36, 37, 38, 39, 40, 41, 42, 43, 44, 45, 46, 47, 48, 49, 50, 51, 52, 53, 54, 55, 56, 57, 58, 59, 60, 61, 62, 63, 64, 65, 66, 67, 68, 69, 70, 71, 72, 73, 74, 75, 76, 77, 78, 79, 80, 81, 82, 83, 84, 85, 86, 87, 88, 89, 90, 91, 92, 93, 94, 95, 96, 97, 98, 99, 100, 101, 102, 103, 104, 105, 106, 107, 108, 109, 110, 111, 112, 113, 114, 115, 116, 117, 118, 119, 120, 121, 122, 123, 124, 125, 126, 127, 128, 129, 130, 131, 132, 133, 134, 135, 136, 137, 138, 139, 140, 141, 142, 143, 144, 145, 146, 147, 148, 149, 150, 151, 152, 153, 154, 155, 156, 157, 158, 159, 160, 161, 162, 163, 164, 165, 166, 167, 168, 169, 170, 171, 172, 173, 174, 175, 176, 177, 178, 179, 180, 181, 182, 183, 184, 185, 186, 187, 188, 189, 190, 191, 192, 193, 194, 195, 196, 197, 198, 199, 200, 201, 202, 203, 204, 205, 206, 207, 208, 209, 210, 211, 212, 213, 214, 215, 216, 217, 218, 219, 220, 221, 222, 223, 224, 225, 226, 227, 228, 229, 230, 231, 232, 233, 234, 235, 236, 237, 238, 239, 240, 241, 242, 243, 244, 245, 246, 247, 248, 249, 250, 251, 252, 253, 254, 255, 256, 257, 258],
      "LargestImagePixelValue": [1820, 1722, 1711, 1737, 1675, 1702, 1677, 1694, 1695, 1704, 1729, 1696, 1676, 1675, 1701, 1667, 1689, 1680, 1735, 1690, 1674, 1686, 1674, 1690, 1689, 1709, 1719, 1763, 1774, 1756, 1746, 1736, 1750, 1772, 1729, 1760, 1746, 1782, 1740, 1742, 1711, 1736, 1737, 1740, 1730, 1696, 1714, 1752, 1748, 1745, 1721, 1760, 1782, 1764, 1754, 1735, 1771, 1786, 1779, 1784, 1753, 1803, 1772, 1787, 1788, 1780, 1768, 1755, 1775, 1777, 1787, 1806, 1783, 1792, 1762, 1821, 1791, 1760, 1749, 1787, 1773, 1769, 1760, 1767, 1782, 1809, 1794, 1785, 1787, 1769, 1829, 1811, 1782, 1796, 1739, 1789, 1787, 1784, 1779, 1798, 1763, 1819, 1784, 1756, 1732, 1758, 1778, 1797, 1816, 1810, 1817, 1791, 1805, 1807, 1816, 1801, 1814, 1814, 1809, 1813, 1815, 1825, 1816, 1831, 1827, 1783, 1781, 1712, 1874, 1939, 1772, 1795, 1796, 1765, 1708, 1731, 1793, 1749, 1711, 1754, 1751, 1751, 1773, 1804, 1734, 1763, 1762, 1752, 1768, 1760, 1744, 1777, 1724, 1663, 1665, 1705, 1715, 1711, 1687, 1651, 1664, 1666, 1740, 1693, 1699, 1716, 1725, 1712, 1727, 1709, 1689, 1731, 1718, 1720, 1675, 1741, 1715, 1729, 1728, 1735, 1738, 1762, 1954, 1832, 1725, 1740, 1875, 1762, 1697, 1686, 1792, 1832, 1795, 1801, 1760, 1757, 1765, 1760, 1736, 1713, 1726, 1730, 1725, 1704, 1739, 1785, 1714, 1691, 1710, 1716, 1704, 1828, 1789, 1737, 1781, 1781, 1775, 1759, 1802, 1779, 1756, 1761, 1791, 1775, 1761, 1722, 1743, 1800, 1792, 1750, 1772, 1798, 1773, 1803, 1774, 1799, 1779, 1780, 1836, 1807, 1838, 1796, 1904, 1940, 1827, 1758, 1963, 1756, 1817, 1798, 1728, 1739, 1752, 1771, 1764, 1791, 1841, 1819],
      "WindowCenter": [805.0, 802.0, 803.0, 804.0, 805.0, 807.0, 804.0, 804.0, 804.0, 803.0, 804.0, 803.0, 804.0, 803.0, 804.0, 803.0, 803.0, 803.0, 802.0, 802.0, 802.0, 802.0, 802.0, 802.0, 802.0, 804.0, 808.0, 806.0, 804.0, 801.0, 802.0, 802.0, 802.0, 802.0, 802.0, 803.0, 808.0, 806.0, 804.0, 803.0, 803.0, 803.0, 805.0, 806.0, 804.0, 804.0, 804.0, 805.0, 804.0, 804.0, 804.0, 804.0, 805.0, 804.0, 804.0, 804.0, 805.0, 806.0, 806.0, 806.0, 805.0, 805.0, 805.0, 805.0, 805.0, 805.0, 805.0, 805.0, 806.0, 805.0, 805.0, 806.0, 805.0, 804.0, 804.0, 806.0, 806.0, 806.0, 806.0, 806.0, 806.0, 805.0, 805.0, 806.0, 806.0, 805.0, 805.0, 806.0, 806.0, 810.0, 808.0, 809.0, 807.0, 806.0, 805.0, 805.0, 807.0, 808.0, 807.0, 808.0, 811.0, 813.0, 813.0, 806.0, 804.0, 803.0, 805.0, 806.0, 807.0, 808.0, 810.0, 809.0, 809.0, 808.0, 808.0, 808.0, 808.0, 808.0, 808.0, 808.0, 808.0, 808.0, 808.0, 807.0, 811.0, 814.0, 814.0, 814.0, 819.0, 813.0, 810.0, 811.0, 809.0, 811.0, 809.0, 815.0, 811.0, 808.0, 808.0, 808.0, 809.0, 810.0, 812.0, 812.0, 813.0, 813.0, 812.0, 812.0, 811.0, 811.0, 812.0, 821.0, 813.0, 810.0, 809.0, 812.0, 811.0, 809.0, 809.0, 809.0, 810.0, 812.0, 812.0, 812.0, 815.0, 816.0, 816.0, 814.0, 812.0, 811.0, 813.0, 814.0, 812.0, 810.0, 812.0, 814.0, 813.0, 811.0, 812.0, 813.0, 817.0, 823.0, 819.0, 818.0, 819.0, 821.0, 819.0, 814.0, 811.0, 811.0, 818.0, 818.0, 816.0, 817.0, 816.0, 817.0, 815.0, 811.0, 808.0, 809.0, 810.0, 813.0, 814.0, 815.0, 816.0, 819.0, 817.0, 817.0, 817.0, 817.0, 817.0, 821.0, 818.0, 816.0, 815.0, 815.0, 817.0, 817.0, 816.0, 815.0, 815.0, 816.0, 816.0, 815.0, 815.0, 816.0, 817.0, 817.0, 817.0, 816.0, 815.0, 815.0, 816.0, 815.0, 815.0, 815.0, 816.0, 816.0, 818.0, 817.0, 816.0, 819.0, 824.0, 827.0, 826.0, 818.0, 821.0, 819.0, 818.0, 811.0, 811.0, 811.0, 812.0, 814.0, 816.0, 821.0, 822.0, 823.0],
      "WindowWidth": [1719.0, 1711.0, 1714.0, 1717.0, 1719.0, 1722.0, 1715.0, 1715.0, 1714.0, 1713.0, 1715.0, 1713.0, 1716.0, 1713.0, 1714.0, 1713.0, 1712.0, 1713.0, 1710.0, 1709.0, 1709.0, 1708.0, 1710.0, 1709.0, 1709.0, 1714.0, 1726.0, 1720.0, 1714.0, 1707.0, 1709.0, 1709.0, 1708.0, 1711.0, 1709.0, 1711.0, 1725.0, 1719.0, 1715.0, 1711.0, 1711.0, 1713.0, 1718.0, 1720.0, 1713.0, 1713.0, 1713.0, 1717.0, 1714.0, 1714.0, 1714.0, 1715.0, 1717.0, 1714.0, 1714.0, 1715.0, 1719.0, 1720.0, 1719.0, 1722.0, 1717.0, 1718.0, 1717.0, 1718.0, 1717.0, 1717.0, 1716.0, 1717.0, 1718.0, 1716.0, 1717.0, 1719.0, 1717.0, 1715.0, 1715.0, 1720.0, 1720.0, 1719.0, 1719.0, 1720.0, 1720.0, 1716.0, 1718.0, 1719.0, 1720.0, 1718.0, 1719.0, 1721.0, 1721.0, 1730.0, 1726.0, 1728.0, 1723.0, 1720.0, 1716.0, 1718.0, 1722.0, 1725.0, 1720.0, 1726.0, 1733.0, 1738.0, 1738.0, 1719.0, 1714.0, 1712.0, 1716.0, 1720.0, 1722.0, 1724.0, 1731.0, 1728.0, 1727.0, 1725.0, 1725.0, 1725.0, 1725.0, 1725.0, 1725.0, 1725.0, 1726.0, 1724.0, 1725.0, 1723.0, 1733.0, 1743.0, 1742.0, 1741.0, 1754.0, 1739.0, 1731.0, 1737.0, 1734.0, 1738.0, 1735.0, 1742.0, 1730.0, 1723.0, 1722.0, 1723.0, 1726.0, 1728.0, 1734.0, 1734.0, 1736.0, 1735.0, 1733.0, 1734.0, 1730.0, 1732.0, 1733.0, 1757.0, 1735.0, 1725.0, 1724.0, 1732.0, 1730.0, 1725.0, 1723.0, 1724.0, 1727.0, 1731.0, 1733.0, 1732.0, 1740.0, 1743.0, 1742.0, 1737.0, 1732.0, 1729.0, 1736.0, 1738.0, 1733.0, 1729.0, 1732.0, 1738.0, 1734.0, 1731.0, 1732.0, 1737.0, 1748.0, 1761.0, 1758.0, 1754.0, 1751.0, 1755.0, 1755.0, 1739.0, 1729.0, 1729.0, 1750.0, 1749.0, 1744.0, 1747.0, 1742.0, 1748.0, 1740.0, 1728.0, 1722.0, 1723.0, 1728.0, 1735.0, 1737.0, 1739.0, 1742.0, 1751.0, 1747.0, 1747.0, 1746.0, 1746.0, 1744.0, 1756.0, 1748.0, 1743.0, 1740.0, 1740.0, 1745.0, 1745.0, 1743.0, 1741.0, 1739.0, 1744.0, 1742.0, 1739.0, 1740.0, 1742.0, 1747.0, 1747.0, 1746.0, 1743.0, 1740.0, 1741.0, 1742.0, 1740.0, 1740.0, 1739.0, 1742.0, 1743.0, 1749.0, 1744.0, 1745.0, 1752.0, 1767.0, 1773.0, 1777.0, 1761.0, 1767.0, 1758.0, 1750.0, 1731.0, 1730.0, 1732.0, 1735.0, 1738.0, 1743.0, 1757.0, 1759.0, 1761.0]
    },
    "slices": {}
  }
}