{
  "AcquisitionMatrixPE": 68,
  "AcquisitionNumber": 1,
  "AcquisitionTime": "11:38:5.900000",
  "BandwidthPerPixelPhaseEncode": 31.289,
  "BaseResolution": 68,
  "CoilString": "C:HEA;HEP",
  "ConversionSoftware": "dcm2niix",
  "ConversionSoftwareVersion": "v1.0.20190902",
  "DerivedVendorReportedEchoSpacing": 0.000470002,
  "DeviceSerialNumber": "35450",
  "DwellTime": 3e-06,
  "EchoTime": 0.023,
  "EffectiveEchoSpacing": 0.000470002,
  "FlipAngle": 76,
  "ImageOrientationPatientDICOM": [1, 0, 0, 0, 0.988228, -0.152986],
  "ImageType": [
    "ORIGINAL",
    "PRIMARY",
    "M",
    "ND",
    "MOSAIC"
],
  "ImagingFrequency": 123.219,
  "InPlanePhaseEncodingDirectionDICOM": "COL",
  "InstitutionAddress": "Univeristy_Ave._197_Newark_North_East_US_07102-1814",
  "InstitutionName": "RUBIC",
  "InstitutionalDepartmentName": "Department",
  "MRAcquisitionType": "2D",
  "MagneticFieldStrength": 3,
  "Manufacturer": "Siemens",
  "ManufacturersModelName": "TrioTim",
  "Modality": "MR",
  "PartialFourier": 1,
  "PatientPosition": "HFS",
  "PercentPhaseFOV": 100,
  "PhaseEncodingDirection": "j-",
  "PhaseEncodingSteps": 68,
  "PhaseResolution": 1,
  "PixelBandwidth": 2451,
  "ProcedureStepDescription": "Krekelberg_David",
  "ProtocolName": "ep2d_bold_RestEPI_3",
  "PulseSequenceDetails": "%SiemensSeq%_ep2d_bold",
  "ReceiveCoilName": "HeadMatrix",
  "ReconMatrixPE": 68,
  "RepetitionTime": 2,
  "SAR": 0.191699,
  "ScanOptions": "FS",
  "ScanningSequence": "EP",
  "SequenceName": "_epfid2d1_68",
  "SequenceVariant": "SK",
  "SeriesDescription": "ep2d_bold_RestEPI_3",
  "SeriesNumber": 10,
  "ShimSetting": [2100, -708, -7917, 1414, 287, -411, -2150, -14],
  "SliceThickness": 2.5,
  "SliceTiming": [1.9525, 1.8975, 1.84, 1.785, 1.73, 1.6725, 1.6175, 1.5625, 1.505, 1.45, 1.395, 1.34, 1.2825, 1.2275, 1.1725, 1.115, 1.06, 1.005, 0.9475, 0.8925, 0.8375, 0.78, 0.725, 0.67, 0.615, 0.5575, 0.5025, 0.4475, 0.39, 0.335, 0.28, 0.2225, 0.1675, 0.1125, 0.0575, 0],
  "SoftwareVersions": "syngo_MR_B19",
  "SpacingBetweenSlices": 3,
  "StationName": "MRC35450",
  "TaskName": "rest",
  "TotalReadoutTime": 0.0314901,
  "TxRefAmp": 432.025,
  "dcmmeta_affine": [
    [-3.0, 0.0, 0.0, 100.6440658569336],
    [0.0, 2.9646852016448975, -0.4589575231075287, -66.07403564453125],
    [0.0, 0.4589575231075287, 2.9646852016448975, -75.84114837646484],
    [0.0, 0.0, 0.0, 1.0]
],
  "dcmmeta_reorient_transform": [
    [0.0, -1.0, 0.0, 67.0],
    [1.0, 0.0, 0.0, 0.0],
    [0.0, 0.0, 1.0, 0.0],
    [0.0, 0.0, 0.0, 1.0]
],
  "dcmmeta_shape": [68, 68, 36, 240],
  "dcmmeta_slice_dim": 2,
  "dcmmeta_version": 0.6,
  "global": {
    "const": {
      "AcquisitionMatrix": [68, 0, 0, 68],
      "AngioFlag": "N",
      "BitsAllocated": 16,
      "BitsStored": 12,
      "Columns": 408,
      "EchoNumbers": 1,
      "EchoTime": 23.0,
      "EchoTrainLength": 1,
      "FlipAngle": 76.0,
      "HighBit": 11,
      "ImageOrientationPatient": [1.0, 0.0, 0.0, 0.0, 0.9882283809914, -0.1529858392241],
      "ImagePositionPatient": [-610.64406776428, -636.55633969286, 32.931784593931],
      "ImageType": [
        "ORIGINAL",
        "PRIMARY",
        "M",
        "ND",
        "MOSAIC"
],
      "ImagedNucleus": "1H",
      "ImagingFrequency": 123.218875,
      "InPlanePhaseEncodingDirection": "COL",
      "MRAcquisitionType": "2D",
      "MagneticFieldStrength": 3.0,
      "Manufacturer": "SIEMENS",
      "ManufacturerModelName": "TrioTim",
      "Modality": "MR",
      "NumberOfAverages": 1.0,
      "NumberOfPhaseEncodingSteps": 68,
      "PercentPhaseFieldOfView": 100.0,
      "PercentSampling": 100.0,
      "PerformedProcedureStepStartTime": "103545.531000",
      "PhotometricInterpretation": "MONOCHROME2",
      "PixelBandwidth": 2451.0,
      "PixelRepresentation": 0,
      "PixelSpacing": [3.0, 3.0],
      "ProtocolName": "ep2d_bold_RestEPI_3",
      "RepetitionTime": 2000.0,
      "Rows": 408,
      "SAR": 0.19169853470928,
      "SamplesPerPixel": 1,
      "ScanOptions": "FS",
      "ScanningSequence": "EP",
      "SequenceName": "*epfid2d1_68",
      "SequenceVariant": "SK",
      "SeriesDescription": "ep2d_bold_RestEPI_3",
      "SeriesNumber": 10,
      "SeriesTime": "113812.890000",
      "SliceLocation": -64.839981668928,
      "SliceThickness": 2.5,
      "SmallestImagePixelValue": 0,
      "SoftwareVersions": "syngo MR B19",
      "SpacingBetweenSlices": 3.0000000229381,
      "SpecificCharacterSet": "ISO_IR 100",
      "StudyID": "1",
      "StudyTime": "103545.484000",
      "TransmitCoilName": "Body",
      "VariableFlipAngleFlag": "N",
      "WindowCenterWidthExplanation": "Algo1",
      "dBdt": 0.0},
    "slices": {}
  },
  "time": {
    "samples": {
      "AcquisitionNumber": [1, 2, 3, 4, 5, 6, 7, 8, 9, 10, 11, 12, 13, 14, 15, 16, 17, 18, 19, 20, 21, 22, 23, 24, 25, 26, 27, 28, 29, 30, 31, 32, 33, 34, 35, 36, 37, 38, 39, 40, 41, 42, 43, 44, 45, 46, 47, 48, 49, 50, 51, 52, 53, 54, 55, 56, 57, 58, 59, 60, 61, 62, 63, 64, 65, 66, 67, 68, 69, 70, 71, 72, 73, 74, 75, 76, 77, 78, 79, 80, 81, 82, 83, 84, 85, 86, 87, 88, 89, 90, 91, 92, 93, 94, 95, 96, 97, 98, 99, 100, 101, 102, 103, 104, 105, 106, 107, 108, 109, 110, 111, 112, 113, 114, 115, 116, 117, 118, 119, 120, 121, 122, 123, 124, 125, 126, 127, 128, 129, 130, 131, 132, 133, 134, 135, 136, 137, 138, 139, 140, 141, 142, 143, 144, 145, 146, 147, 148, 149, 150, 151, 152, 153, 154, 155, 156, 157, 158, 159, 160, 161, 162, 163, 164, 165, 166, 167, 168, 169, 170, 171, 172, 173, 174, 175, 176, 177, 178, 179, 180, 181, 182, 183, 184, 185, 186, 187, 188, 189, 190, 191, 192, 193, 194, 195, 196, 197, 198, 199, 200, 201, 202, 203, 204, 205, 206, 207, 208, 209, 210, 211, 212, 213, 214, 215, 216, 217, 218, 219, 220, 221, 222, 223, 224, 225, 226, 227, 228, 229, 230, 231, 232, 233, 234, 235, 236, 237, 238, 239, 240],
      "AcquisitionTime": ["113805.900000", "113807.907500", "113809.915000", "113811.925000", "113813.932500", "113815.940000", "113817.947500", "113819.955000", "113821.965000", "113823.972500", "113825.980000", "113827.987500", "113829.995000", "113832.005000", "113834.012500", "113836.020000", "113838.027500", "113840.035000", "113842.045000", "113844.052500", "113846.060000", "113848.067500", "113850.077500", "113852.085000", "113854.092500", "113856.100000", "113858.107500", "113900.117500", "113902.125000", "113904.132500", "113906.140000", "113908.147500", "113910.157500", "113912.165000", "113914.172500", "113916.180000", "113918.190000", "113920.197500", "113922.205000", "113924.212500", "113926.220000", "113928.230000", "113930.237500", "113932.245000", "113934.252500", "113936.260000", "113938.270000", "113940.277500", "113942.285000", "113944.292500", "113946.302500", "113948.310000", "113950.317500", "113952.325000", "113954.332500", "113956.342500", "113958.350000", "114000.357500", "114002.365000", "114004.372500", "114006.382500", "114008.390000", "114010.397500", "114012.405000", "114014.415000", "114016.422500", "114018.430000", "114020.437500", "114022.445000", "114024.455000", "114026.462500", "114028.470000", "114030.477500", "114032.485000", "114034.495000", "114036.502500", "114038.510000", "114040.517500", "114042.525000", "114044.535000", "114046.542500", "114048.550000", "114050.557500", "114052.567500", "114054.575000", "114056.582500", "114058.590000", "114100.597500", "114102.607500", "114104.615000", "114106.622500", "114108.630000", "114110.637500", "114112.647500", "114114.655000", "114116.662500", "114118.670000", "114120.680000", "114122.687500", "114124.695000", "114126.702500", "114128.710000", "114130.720000", "114132.727500", "114134.735000", "114136.742500", "114138.750000", "114140.760000", "114142.767500", "114144.775000", "114146.782500", "114148.792500", "114150.800000", "114152.807500", "114154.815000", "114156.822500", "114158.832500", "114200.840000", "114202.847500", "114204.855000", "114206.862500", "114208.872500", "114210.880000", "114212.887500", "114214.895000", "114216.902500", "114218.912500", "114220.920000", "114222.927500", "114224.935000", "114226.945000", "114228.952500", "114230.960000", "114232.967500", "114234.975000", "114236.985000", "114238.992500", "114241.000000", "114243.007500", "114245.015000", "114247.025000", "114249.032500", "114251.040000", "114253.047500", "114255.057500", "114257.065000", "114259.072500", "114301.080000", "114303.087500", "114305.097500", "114307.105000", "114309.112500", "114311.120000", "114313.127500", "114315.137500", "114317.145000", "114319.152500", "114321.160000", "114323.170000", "114325.177500", "114327.185000", "114329.192500", "114331.200000", "114333.210000", "114335.217500", "114337.225000", "114339.232500", "114341.240000", "114343.250000", "114345.257500", "114347.265000", "114349.272500", "114351.280000", "114353.290000", "114355.297500", "114357.305000", "114359.312500", "114401.322500", "114403.330000", "114405.337500", "114407.345000", "114409.352500", "114411.362500", "114413.370000", "114415.377500", "114417.385000", "114419.392500", "114421.402500", "114423.410000", "114425.417500", "114427.425000", "114429.435000", "114431.442500", "114433.450000", "114435.457500", "114437.465000", "114439.475000", "114441.482500", "114443.490000", "114445.497500", "114447.505000", "114449.515000", "114451.522500", "114453.530000", "114455.537500", "114457.547500", "114459.555000", "114501.562500", "114503.570000", "114505.577500", "114507.587500", "114509.595000", "114511.602500", "114513.610000", "114515.617500", "114517.627500", "114519.635000", "114521.642500", "114523.650000", "114525.657500", "114527.667500", "114529.675000", "114531.682500", "114533.690000", "114535.700000", "114537.707500", "114539.715000", "114541.722500", "114543.730000", "114545.740000", "114547.747500", "114549.755000", "114551.762500", "114553.770000", "114555.780000", "114557.787500", "114559.795000", "114601.802500", "114603.812500", "114605.820000"],
      "ContentTime": ["113812.890000", "113812.906000", "113812.906000", "113852.890000", "113852.890000", "113852.890000", "113852.906000", "113852.906000", "113852.906000", "113852.906000", "113852.906000", "113852.906000", "113852.906000", "113852.906000", "113852.921000", "113852.921000", "113852.921000", "113852.921000", "113852.921000", "113852.921000", "113852.937000", "113852.937000", "113852.937000", "113932.890000", "113932.890000", "113932.890000", "113932.890000", "113932.906000", "113932.906000", "113932.906000", "113932.906000", "113932.906000", "113932.906000", "113932.906000", "113932.921000", "113932.921000", "113932.921000", "113932.921000", "113932.921000", "113932.921000", "113932.921000", "113932.921000", "113932.937000", "114012.890000", "114012.890000", "114012.890000", "114012.890000", "114012.906000", "114012.906000", "114012.906000", "114012.906000", "114012.906000", "114012.906000", "114012.906000", "114012.921000", "114012.921000", "114012.937000", "114012.937000", "114012.937000", "114012.937000", "114012.937000", "114012.953000", "114012.953000", "114052.890000", "114052.890000", "114052.890000", "114052.890000", "114052.906000", "114052.906000", "114052.906000", "114052.906000", "114052.906000", "114052.906000", "114052.921000", "114052.921000", "114052.921000", "114052.921000", "114052.921000", "114052.921000", "114052.921000", "114052.937000", "114052.937000", "114052.937000", "114132.890000", "114132.890000", "114132.890000", "114132.890000", "114132.906000", "114132.906000", "114132.906000", "114132.906000", "114132.906000", "114132.906000", "114132.906000", "114132.921000", "114132.921000", "114132.921000", "114132.921000", "114132.921000", "114132.921000", "114132.921000", "114132.921000", "114132.937000", "114212.890000", "114212.890000", "114212.890000", "114212.890000", "114212.906000", "114212.906000", "114212.906000", "114212.906000", "114212.906000", "114212.906000", "114212.906000", "114212.921000", "114212.921000", "114212.921000", "114212.921000", "114212.921000", "114212.921000", "114212.921000", "114212.921000", "114212.937000", "114252.890000", "114252.890000", "114252.890000", "114252.890000", "114252.906000", "114252.906000", "114252.906000", "114252.906000", "114252.906000", "114252.906000", "114252.906000", "114252.921000", "114252.921000", "114252.921000", "114252.921000", "114252.921000", "114252.921000", "114252.921000", "114252.921000", "114252.937000", "114332.890000", "114332.890000", "114332.890000", "114332.906000", "114332.906000", "114332.906000", "114332.906000", "114332.906000", "114332.906000", "114332.906000", "114332.906000", "114332.921000", "114332.921000", "114332.921000", "114332.921000", "114332.921000", "114332.921000", "114332.921000", "114332.937000", "114332.937000", "114412.890000", "114412.890000", "114412.890000", "114412.906000", "114412.906000", "114412.906000", "114412.906000", "114412.906000", "114412.906000", "114412.906000", "114412.906000", "114412.921000", "114412.921000", "114412.921000", "114412.921000", "114412.921000", "114412.921000", "114412.921000", "114412.937000", "114412.937000", "114452.890000", "114452.890000", "114452.890000", "114452.906000", "114452.906000", "114452.906000", "114452.906000", "114452.906000", "114452.906000", "114452.906000", "114452.906000", "114452.921000", "114452.921000", "114452.921000", "114452.921000", "114452.921000", "114452.921000", "114452.921000", "114452.937000", "114452.937000", "114532.890000", "114532.890000", "114532.890000", "114532.890000", "114532.906000", "114532.906000", "114532.906000", "114532.906000", "114532.906000", "114532.906000", "114532.906000", "114532.921000", "114532.921000", "114532.921000", "114532.921000", "114532.921000", "114532.921000", "114532.921000", "114532.921000", "114532.937000", "114605.312000", "114605.328000", "114605.328000", "114605.328000", "114605.328000", "114605.328000", "114605.328000", "114605.328000", "114605.343000", "114605.343000", "114605.343000", "114605.343000", "114605.343000", "114605.359000", "114605.359000", "114605.359000", "114605.359000"],
      "InstanceCreationTime": ["113812.890000", "113812.906000", "113812.906000", "113852.890000", "113852.890000", "113852.890000", "113852.906000", "113852.906000", "113852.906000", "113852.906000", "113852.906000", "113852.906000", "113852.906000", "113852.906000", "113852.921000", "113852.921000", "113852.921000", "113852.921000", "113852.921000", "113852.921000", "113852.937000", "113852.937000", "113852.937000", "113932.890000", "113932.890000", "113932.890000", "113932.890000", "113932.906000", "113932.906000", "113932.906000", "113932.906000", "113932.906000", "113932.906000", "113932.906000", "113932.921000", "113932.921000", "113932.921000", "113932.921000", "113932.921000", "113932.921000", "113932.921000", "113932.921000", "113932.937000", "114012.890000", "114012.890000", "114012.890000", "114012.890000", "114012.906000", "114012.906000", "114012.906000", "114012.906000", "114012.906000", "114012.906000", "114012.906000", "114012.921000", "114012.921000", "114012.937000", "114012.937000", "114012.937000", "114012.937000", "114012.937000", "114012.953000", "114012.953000", "114052.890000", "114052.890000", "114052.890000", "114052.890000", "114052.906000", "114052.906000", "114052.906000", "114052.906000", "114052.906000", "114052.906000", "114052.921000", "114052.921000", "114052.921000", "114052.921000", "114052.921000", "114052.921000", "114052.921000", "114052.937000", "114052.937000", "114052.937000", "114132.890000", "114132.890000", "114132.890000", "114132.890000", "114132.906000", "114132.906000", "114132.906000", "114132.906000", "114132.906000", "114132.906000", "114132.906000", "114132.921000", "114132.921000", "114132.921000", "114132.921000", "114132.921000", "114132.921000", "114132.921000", "114132.921000", "114132.937000", "114212.890000", "114212.890000", "114212.890000", "114212.890000", "114212.906000", "114212.906000", "114212.906000", "114212.906000", "114212.906000", "114212.906000", "114212.906000", "114212.921000", "114212.921000", "114212.921000", "114212.921000", "114212.921000", "114212.921000", "114212.921000", "114212.921000", "114212.937000", "114252.890000", "114252.890000", "114252.890000", "114252.890000", "114252.906000", "114252.906000", "114252.906000", "114252.906000", "114252.906000", "114252.906000", "114252.906000", "114252.921000", "114252.921000", "114252.921000", "114252.921000", "114252.921000", "114252.921000", "114252.921000", "114252.921000", "114252.937000", "114332.890000", "114332.890000", "114332.890000", "114332.906000", "114332.906000", "114332.906000", "114332.906000", "114332.906000", "114332.906000", "114332.906000", "114332.906000", "114332.921000", "114332.921000", "114332.921000", "114332.921000", "114332.921000", "114332.921000", "114332.921000", "114332.937000", "114332.937000", "114412.890000", "114412.890000", "114412.890000", "114412.906000", "114412.906000", "114412.906000", "114412.906000", "114412.906000", "114412.906000", "114412.906000", "114412.906000", "114412.921000", "114412.921000", "114412.921000", "114412.921000", "114412.921000", "114412.921000", "114412.921000", "114412.937000", "114412.937000", "114452.890000", "114452.890000", "114452.890000", "114452.906000", "114452.906000", "114452.906000", "114452.906000", "114452.906000", "114452.906000", "114452.906000", "114452.906000", "114452.921000", "114452.921000", "114452.921000", "114452.921000", "114452.921000", "114452.921000", "114452.921000", "114452.937000", "114452.937000", "114532.890000", "114532.890000", "114532.890000", "114532.890000", "114532.906000", "114532.906000", "114532.906000", "114532.906000", "114532.906000", "114532.906000", "114532.906000", "114532.921000", "114532.921000", "114532.921000", "114532.921000", "114532.921000", "114532.921000", "114532.921000", "114532.921000", "114532.937000", "114605.312000", "114605.328000", "114605.328000", "114605.328000", "114605.328000", "114605.328000", "114605.328000", "114605.328000", "114605.343000", "114605.343000", "114605.343000", "114605.343000", "114605.343000", "114605.359000", "114605.359000", "114605.359000", "114605.359000"],
      "InstanceNumber": [1, 2, 3, 4, 5, 6, 7, 8, 9, 10, 11, 12, 13, 14, 15, 16, 17, 18, 19, 20, 21, 22, 23, 24, 25, 26, 27, 28, 29, 30, 31, 32, 33, 34, 35, 36, 37, 38, 39, 40, 41, 42, 43, 44, 45, 46, 47, 48, 49, 50, 51, 52, 53, 54, 55, 56, 57, 58, 59, 60, 61, 62, 63, 64, 65, 66, 67, 68, 69, 70, 71, 72, 73, 74, 75, 76, 77, 78, 79, 80, 81, 82, 83, 84, 85, 86, 87, 88, 89, 90, 91, 92, 93, 94, 95, 96, 97, 98, 99, 100, 101, 102, 103, 104, 105, 106, 107, 108, 109, 110, 111, 112, 113, 114, 115, 116, 117, 118, 119, 120, 121, 122, 123, 124, 125, 126, 127, 128, 129, 130, 131, 132, 133, 134, 135, 136, 137, 138, 139, 140, 141, 142, 143, 144, 145, 146, 147, 148, 149, 150, 151, 152, 153, 154, 155, 156, 157, 158, 159, 160, 161, 162, 163, 164, 165, 166, 167, 168, 169, 170, 171, 172, 173, 174, 175, 176, 177, 178, 179, 180, 181, 182, 183, 184, 185, 186, 187, 188, 189, 190, 191, 192, 193, 194, 195, 196, 197, 198, 199, 200, 201, 202, 203, 204, 205, 206, 207, 208, 209, 210, 211, 212, 213, 214, 215, 216, 217, 218, 219, 220, 221, 222, 223, 224, 225, 226, 227, 228, 229, 230, 231, 232, 233, 234, 235, 236, 237, 238, 239, 240],
      "LargestImagePixelValue": [2112, 1984, 1884, 1881, 1813, 1857, 1868, 1870, 1888, 1929, 1876, 1896, 1897, 1884, 1899, 1886, 1899, 1866, 1869, 1910, 1892, 1956, 1887, 1906, 1853, 1879, 1915, 1883, 1858, 1863, 1907, 1909, 1961, 1883, 1938, 1916, 1890, 1900, 1969, 1945, 1874, 1932, 1901, 1911, 1886, 1890, 1981, 1938, 1959, 1867, 1854, 1871, 1877, 1880, 1845, 1914, 1874, 1901, 1906, 1889, 1878, 1927, 1932, 1876, 1916, 1906, 1925, 1948, 1905, 1982, 1938, 1898, 1913, 1906, 1936, 1951, 1859, 1914, 1899, 1976, 1920, 1965, 1959, 1925, 1936, 1902, 1863, 1877, 1902, 1917, 1889, 1912, 1890, 1890, 1887, 1895, 1880, 1834, 1916, 1897, 1877, 1877, 1822, 1841, 1817, 1839, 1800, 1824, 1888, 1887, 1902, 1859, 1846, 1880, 1878, 1904, 1917, 1879, 1865, 1833, 1826, 1880, 1855, 1835, 1864, 1884, 1834, 1860, 1837, 1888, 1945, 1913, 1964, 1880, 1905, 1881, 1902, 1907, 1929, 1843, 1880, 1857, 1919, 1884, 1882, 1861, 1890, 1892, 1870, 1876, 1888, 1872, 1898, 1897, 1958, 1916, 1895, 1883, 1866, 1886, 1886, 1924, 1881, 1900, 1884, 1892, 1899, 1911, 1891, 1871, 1896, 1914, 1937, 1903, 1898, 1822, 1818, 1820, 1846, 1867, 1783, 1859, 1798, 1789, 1796, 1839, 1821, 1808, 1856, 1866, 1880, 1968, 1870, 1914, 1844, 1871, 1838, 1845, 1796, 1839, 1798, 1810, 1817, 1838, 1854, 1836, 1811, 1789, 1816, 1819, 1824, 1849, 1894, 1824, 1851, 1809, 1899, 1808, 1859, 1817, 1809, 1870, 1849, 1865, 1862, 1908, 1855, 1857, 1870, 1864, 1873, 1852, 1911, 1865, 1834, 1848, 1853, 1848, 1886, 1859],
      "WindowCenter": [790.0, 785.0, 784.0, 782.0, 780.0, 780.0, 781.0, 782.0, 781.0, 781.0, 781.0, 781.0, 782.0, 782.0, 781.0, 781.0, 781.0, 780.0, 780.0, 781.0, 781.0, 781.0, 780.0, 781.0, 781.0, 782.0, 782.0, 781.0, 781.0, 782.0, 783.0, 783.0, 783.0, 782.0, 783.0, 782.0, 783.0, 783.0, 783.0, 782.0, 782.0, 782.0, 782.0, 782.0, 783.0, 783.0, 784.0, 783.0, 784.0, 783.0, 783.0, 782.0, 783.0, 783.0, 783.0, 783.0, 782.0, 782.0, 783.0, 783.0, 782.0, 782.0, 782.0, 782.0, 782.0, 782.0, 783.0, 784.0, 783.0, 784.0, 783.0, 784.0, 783.0, 783.0, 783.0, 783.0, 782.0, 783.0, 783.0, 783.0, 783.0, 784.0, 783.0, 782.0, 783.0, 784.0, 785.0, 784.0, 784.0, 784.0, 783.0, 784.0, 784.0, 783.0, 783.0, 783.0, 783.0, 783.0, 784.0, 784.0, 784.0, 785.0, 785.0, 785.0, 784.0, 784.0, 784.0, 785.0, 785.0, 784.0, 785.0, 784.0, 784.0, 784.0, 784.0, 785.0, 785.0, 784.0, 784.0, 784.0, 781.0, 782.0, 782.0, 782.0, 783.0, 783.0, 783.0, 784.0, 783.0, 784.0, 785.0, 786.0, 786.0, 786.0, 786.0, 786.0, 786.0, 786.0, 785.0, 784.0, 785.0, 784.0, 786.0, 786.0, 786.0, 786.0, 785.0, 785.0, 784.0, 785.0, 785.0, 786.0, 787.0, 787.0, 788.0, 786.0, 787.0, 787.0, 786.0, 786.0, 787.0, 787.0, 787.0, 787.0, 787.0, 787.0, 787.0, 788.0, 788.0, 788.0, 788.0, 788.0, 787.0, 787.0, 786.0, 786.0, 786.0, 787.0, 788.0, 788.0, 786.0, 787.0, 787.0, 787.0, 786.0, 786.0, 786.0, 785.0, 785.0, 785.0, 786.0, 791.0, 790.0, 788.0, 789.0, 791.0, 786.0, 785.0, 786.0, 786.0, 785.0, 784.0, 785.0, 785.0, 785.0, 785.0, 786.0, 787.0, 788.0, 788.0, 789.0, 791.0, 793.0, 787.0, 789.0, 789.0, 788.0, 785.0, 784.0, 784.0, 783.0, 784.0, 784.0, 783.0, 785.0, 789.0, 783.0, 785.0, 784.0, 785.0, 785.0, 784.0, 785.0, 784.0, 784.0, 784.0, 785.0, 786.0, 787.0, 786.0],
      "WindowWidth": [1653.0, 1640.0, 1634.0, 1631.0, 1627.0, 1627.0, 1628.0, 1630.0, 1628.0, 1630.0, 1628.0, 1630.0, 1631.0, 1631.0, 1629.0, 1627.0, 1628.0, 1626.0, 1626.0, 1628.0, 1628.0, 1628.0, 1627.0, 1629.0, 1629.0, 1631.0, 1630.0, 1629.0, 1628.0, 1630.0, 1633.0, 1633.0, 1632.0, 1631.0, 1633.0, 1631.0, 1633.0, 1633.0, 1633.0, 1632.0, 1631.0, 1631.0, 1630.0, 1630.0, 1633.0, 1634.0, 1636.0, 1634.0, 1635.0, 1633.0, 1633.0, 1632.0, 1633.0, 1634.0, 1632.0, 1633.0, 1632.0, 1631.0, 1633.0, 1633.0, 1631.0, 1630.0, 1631.0, 1630.0, 1632.0, 1632.0, 1634.0, 1636.0, 1634.0, 1636.0, 1635.0, 1635.0, 1634.0, 1633.0, 1635.0, 1634.0, 1632.0, 1634.0, 1633.0, 1633.0, 1634.0, 1635.0, 1633.0, 1632.0, 1633.0, 1635.0, 1639.0, 1636.0, 1636.0, 1635.0, 1635.0, 1635.0, 1635.0, 1633.0, 1633.0, 1634.0, 1633.0, 1634.0, 1636.0, 1635.0, 1637.0, 1640.0, 1638.0, 1638.0, 1637.0, 1635.0, 1637.0, 1639.0, 1638.0, 1638.0, 1638.0, 1636.0, 1635.0, 1636.0, 1636.0, 1638.0, 1638.0, 1636.0, 1637.0, 1637.0, 1630.0, 1631.0, 1631.0, 1632.0, 1634.0, 1634.0, 1633.0, 1636.0, 1634.0, 1636.0, 1638.0, 1640.0, 1641.0, 1641.0, 1642.0, 1641.0, 1641.0, 1640.0, 1639.0, 1636.0, 1639.0, 1638.0, 1642.0, 1642.0, 1641.0, 1640.0, 1638.0, 1639.0, 1638.0, 1638.0, 1639.0, 1642.0, 1643.0, 1643.0, 1646.0, 1642.0, 1644.0, 1643.0, 1641.0, 1641.0, 1643.0, 1643.0, 1643.0, 1645.0, 1643.0, 1644.0, 1646.0, 1645.0, 1647.0, 1645.0, 1645.0, 1645.0, 1644.0, 1642.0, 1641.0, 1642.0, 1642.0, 1643.0, 1647.0, 1645.0, 1642.0, 1644.0, 1643.0, 1643.0, 1640.0, 1642.0, 1641.0, 1640.0, 1639.0, 1640.0, 1642.0, 1654.0, 1649.0, 1645.0, 1648.0, 1653.0, 1642.0, 1639.0, 1642.0, 1642.0, 1638.0, 1637.0, 1640.0, 1639.0, 1638.0, 1639.0, 1643.0, 1644.0, 1645.0, 1646.0, 1649.0, 1652.0, 1661.0, 1643.0, 1649.0, 1648.0, 1647.0, 1639.0, 1637.0, 1637.0, 1635.0, 1639.0, 1636.0, 1633.0, 1640.0, 1652.0, 1636.0, 1639.0, 1637.0, 1638.0, 1639.0, 1637.0, 1639.0, 1636.0, 1638.0, 1637.0, 1639.0, 1641.0, 1644.0, 1641.0]
    },
    "slices": {}
  }
}