{
  "AcquisitionMatrixPE": 68,
  "AcquisitionNumber": 1,
  "AcquisitionTime": "09:49:51.725000",
  "BandwidthPerPixelPhaseEncode": 31.289,
  "BaseResolution": 68,
  "CoilString": "C:HEA;HEP",
  "ConversionSoftware": "dcm2niix",
  "ConversionSoftwareVersion": "v1.0.20190902",
  "DerivedVendorReportedEchoSpacing": 0.000470002,
  "DeviceSerialNumber": "35450",
  "DwellTime": 3e-06,
  "EchoTime": 0.023,
  "EffectiveEchoSpacing": 0.000470002,
  "FlipAngle": 76,
  "ImageOrientationPatientDICOM": [0.999962, 0.0020224, 0.00848896, -4.18132e-08, 0.972776, -0.231748],
  "ImageType": [
    "ORIGINAL",
    "PRIMARY",
    "M",
    "ND",
    "MOSAIC"
],
  "ImagingFrequency": 123.219,
  "InPlanePhaseEncodingDirectionDICOM": "COL",
  "InstitutionAddress": "Univeristy_Ave._197_Newark_North_East_US_07102-1814",
  "InstitutionName": "RUBIC",
  "InstitutionalDepartmentName": "Department",
  "MRAcquisitionType": "2D",
  "MagneticFieldStrength": 3,
  "Manufacturer": "Siemens",
  "ManufacturersModelName": "TrioTim",
  "Modality": "MR",
  "PartialFourier": 1,
  "PatientPosition": "HFS",
  "PercentPhaseFOV": 100,
  "PhaseEncodingDirection": "j-",
  "PhaseEncodingSteps": 68,
  "PhaseResolution": 1,
  "PixelBandwidth": 2451,
  "ProcedureStepDescription": "Krekelberg_David",
  "ProtocolName": "ep2d_bold_RestEPI",
  "PulseSequenceDetails": "%SiemensSeq%_ep2d_bold",
  "ReceiveCoilName": "HeadMatrix",
  "ReconMatrixPE": 68,
  "RepetitionTime": 2,
  "SAR": 0.191358,
  "ScanOptions": "FS",
  "ScanningSequence": "EP",
  "SequenceName": "_epfid2d1_68",
  "SequenceVariant": "SK",
  "SeriesDescription": "ep2d_bold_RestEPI",
  "SeriesNumber": 9,
  "ShimSetting": [1986, -527, -7580, 697, 15, 76, -374, -71],
  "SliceThickness": 2.5,
  "SliceTiming": [1.9525, 1.895, 1.84, 1.785, 1.7275, 1.6725, 1.6175, 1.56, 1.505, 1.45, 1.395, 1.3375, 1.2825, 1.2275, 1.17, 1.115, 1.06, 1.0025, 0.9475, 0.8925, 0.835, 0.78, 0.725, 0.67, 0.6125, 0.5575, 0.5025, 0.445, 0.39, 0.335, 0.2775, 0.2225, 0.1675, 0.11, 0.055, 0],
  "SoftwareVersions": "syngo_MR_B19",
  "SpacingBetweenSlices": 3,
  "StationName": "MRC35450",
  "TaskName": "rest",
  "TotalReadoutTime": 0.0314901,
  "TxRefAmp": 435.438,
  "dcmmeta_affine": [
    [-2.9998857975006104, -1.2543948457732768e-07, 0.026179632171988487, 105.60577392578125],
    [-0.00606719683855772, 2.918327569961548, -0.6952172517776489, -72.39857482910156],
    [0.025466885417699814, 0.6952437162399292, 2.9182164669036865, -58.605552673339844],
    [0.0, 0.0, 0.0, 1.0]
],
  "dcmmeta_reorient_transform": [
    [0.0, -1.0, 0.0, 67.0],
    [1.0, 0.0, 0.0, 0.0],
    [0.0, 0.0, 1.0, 0.0],
    [0.0, 0.0, 0.0, 1.0]
],
  "dcmmeta_shape": [68, 68, 36, 240],
  "dcmmeta_slice_dim": 2,
  "dcmmeta_version": 0.6,
  "global": {
    "const": {
      "AcquisitionMatrix": [68, 0, 0, 68],
      "AngioFlag": "N",
      "BitsAllocated": 16,
      "BitsStored": 12,
      "Columns": 408,
      "EchoNumbers": 1,
      "EchoTime": 23.0,
      "EchoTrainLength": 1,
      "FlipAngle": 76.0,
      "HighBit": 11,
      "ImageOrientationPatient": [0.99996192298765, 0.00202239900684, 0.00848896207399, -4.1813161e-08, 0.97277587834468, -0.2317479029263],
      "ImagePositionPatient": [-615.58632499011, -620.27649881835, 101.83783712754],
      "ImageType": [
        "ORIGINAL",
        "PRIMARY",
        "M",
        "ND",
        "MOSAIC"
],
      "ImagedNucleus": "1H",
      "ImagingFrequency": 123.218614,
      "InPlanePhaseEncodingDirection": "COL",
      "MRAcquisitionType": "2D",
      "MagneticFieldStrength": 3.0,
      "Manufacturer": "SIEMENS",
      "ManufacturerModelName": "TrioTim",
      "Modality": "MR",
      "NumberOfAverages": 1.0,
      "NumberOfPhaseEncodingSteps": 68,
      "PercentPhaseFieldOfView": 100.0,
      "PercentSampling": 100.0,
      "PerformedProcedureStepStartTime": "085933.765000",
      "PhotometricInterpretation": "MONOCHROME2",
      "PixelBandwidth": 2451.0,
      "PixelRepresentation": 0,
      "PixelSpacing": [3.0, 3.0],
      "ProtocolName": "ep2d_bold_RestEPI",
      "RepetitionTime": 2000.0,
      "Rows": 408,
      "SAR": 0.19135827292071,
      "SamplesPerPixel": 1,
      "ScanOptions": "FS",
      "ScanningSequence": "EP",
      "SequenceName": "*epfid2d1_68",
      "SequenceVariant": "SK",
      "SeriesDescription": "ep2d_bold_RestEPI",
      "SeriesNumber": 9,
      "SeriesTime": "095044.640000",
      "SliceLocation": -39.308743459734,
      "SliceThickness": 2.5,
      "SmallestImagePixelValue": 0,
      "SoftwareVersions": "syngo MR B19",
      "SpacingBetweenSlices": 2.999999978053,
      "SpecificCharacterSet": "ISO_IR 100",
      "StudyID": "1",
      "StudyTime": "085933.437000",
      "TransmitCoilName": "Body",
      "VariableFlipAngleFlag": "N",
      "WindowCenterWidthExplanation": "Algo1",
      "dBdt": 0.0},
    "slices": {}
  },
  "time": {
    "samples": {
      "AcquisitionNumber": [1, 2, 3, 4, 5, 6, 7, 8, 9, 10, 11, 12, 13, 14, 15, 16, 17, 18, 19, 20, 21, 22, 23, 24, 25, 26, 27, 28, 29, 30, 31, 32, 33, 34, 35, 36, 37, 38, 39, 40, 41, 42, 43, 44, 45, 46, 47, 48, 49, 50, 51, 52, 53, 54, 55, 56, 57, 58, 59, 60, 61, 62, 63, 64, 65, 66, 67, 68, 69, 70, 71, 72, 73, 74, 75, 76, 77, 78, 79, 80, 81, 82, 83, 84, 85, 86, 87, 88, 89, 90, 91, 92, 93, 94, 95, 96, 97, 98, 99, 100, 101, 102, 103, 104, 105, 106, 107, 108, 109, 110, 111, 112, 113, 114, 115, 116, 117, 118, 119, 120, 121, 122, 123, 124, 125, 126, 127, 128, 129, 130, 131, 132, 133, 134, 135, 136, 137, 138, 139, 140, 141, 142, 143, 144, 145, 146, 147, 148, 149, 150, 151, 152, 153, 154, 155, 156, 157, 158, 159, 160, 161, 162, 163, 164, 165, 166, 167, 168, 169, 170, 171, 172, 173, 174, 175, 176, 177, 178, 179, 180, 181, 182, 183, 184, 185, 186, 187, 188, 189, 190, 191, 192, 193, 194, 195, 196, 197, 198, 199, 200, 201, 202, 203, 204, 205, 206, 207, 208, 209, 210, 211, 212, 213, 214, 215, 216, 217, 218, 219, 220, 221, 222, 223, 224, 225, 226, 227, 228, 229, 230, 231, 232, 233, 234, 235, 236, 237, 238, 239, 240],
      "AcquisitionTime": ["094951.725000", "094953.732500", "094955.740000", "094957.747500", "094959.755000", "095001.765000", "095003.772500", "095005.780000", "095007.787500", "095009.795000", "095011.805000", "095013.812500", "095015.820000", "095017.827500", "095019.837500", "095021.845000", "095023.852500", "095025.860000", "095027.867500", "095029.877500", "095031.885000", "095033.892500", "095035.900000", "095037.907500", "095039.917500", "095041.925000", "095043.932500", "095045.940000", "095047.950000", "095049.957500", "095051.965000", "095053.972500", "095055.980000", "095057.990000", "095059.997500", "095102.005000", "095104.012500", "095106.020000", "095108.030000", "095110.037500", "095112.045000", "095114.052500", "095116.062500", "095118.070000", "095120.077500", "095122.085000", "095124.092500", "095126.102500", "095128.110000", "095130.117500", "095132.125000", "095134.132500", "095136.142500", "095138.150000", "095140.157500", "095142.165000", "095144.172500", "095146.182500", "095148.190000", "095150.197500", "095152.205000", "095154.215000", "095156.222500", "095158.230000", "095200.237500", "095202.245000", "095204.255000", "095206.262500", "095208.270000", "095210.277500", "095212.285000", "095214.295000", "095216.302500", "095218.310000", "095220.317500", "095222.327500", "095224.335000", "095226.342500", "095228.350000", "095230.357500", "095232.367500", "095234.375000", "095236.382500", "095238.390000", "095240.397500", "095242.407500", "095244.415000", "095246.422500", "095248.430000", "095250.440000", "095252.447500", "095254.455000", "095256.462500", "095258.470000", "095300.480000", "095302.487500", "095304.495000", "095306.502500", "095308.510000", "095310.520000", "095312.527500", "095314.535000", "095316.542500", "095318.550000", "095320.560000", "095322.567500", "095324.575000", "095326.582500", "095328.592500", "095330.600000", "095332.607500", "095334.615000", "095336.622500", "095338.632500", "095340.640000", "095342.647500", "095344.655000", "095346.662500", "095348.672500", "095350.680000", "095352.687500", "095354.695000", "095356.705000", "095358.712500", "095400.720000", "095402.727500", "095404.735000", "095406.745000", "095408.752500", "095410.760000", "095412.767500", "095414.775000", "095416.785000", "095418.792500", "095420.800000", "095422.807500", "095424.817500", "095426.825000", "095428.832500", "095430.840000", "095432.847500", "095434.857500", "095436.865000", "095438.872500", "095440.880000", "095442.887500", "095444.897500", "095446.905000", "095448.912500", "095450.920000", "095452.927500", "095454.937500", "095456.945000", "095458.952500", "095500.960000", "095502.970000", "095504.977500", "095506.985000", "095508.992500", "095511.000000", "095513.010000", "095515.017500", "095517.025000", "095519.032500", "095521.040000", "095523.050000", "095525.057500", "095527.065000", "095529.072500", "095531.082500", "095533.090000", "095535.097500", "095537.105000", "095539.112500", "095541.122500", "095543.130000", "095545.137500", "095547.145000", "095549.152500", "095551.162500", "095553.170000", "095555.177500", "095557.185000", "095559.195000", "095601.202500", "095603.210000", "095605.217500", "095607.225000", "095609.235000", "095611.242500", "095613.250000", "095615.257500", "095617.265000", "095619.275000", "095621.282500", "095623.290000", "095625.297500", "095627.305000", "095629.315000", "095631.322500", "095633.330000", "095635.337500", "095637.347500", "095639.355000", "095641.362500", "095643.370000", "095645.377500", "095647.387500", "095649.395000", "095651.402500", "095653.410000", "095655.417500", "095657.427500", "095659.435000", "095701.442500", "095703.450000", "095705.460000", "095707.467500", "095709.475000", "095711.482500", "095713.490000", "095715.500000", "095717.507500", "095719.515000", "095721.522500", "095723.530000", "095725.540000", "095727.547500", "095729.555000", "095731.562500", "095733.572500", "095735.580000", "095737.587500", "095739.595000", "095741.602500", "095743.612500", "095745.620000", "095747.627500", "095749.635000", "095751.642500"],
      "ContentTime": ["095044.640000", "095044.640000", "095044.640000", "095044.640000", "095044.640000", "095044.656000", "095044.656000", "095044.656000", "095044.656000", "095044.656000", "095044.656000", "095044.656000", "095044.671000", "095044.671000", "095044.671000", "095044.671000", "095044.671000", "095044.671000", "095044.671000", "095044.687000", "095044.687000", "095044.687000", "095044.687000", "095044.687000", "095044.687000", "095044.687000", "095104.640000", "095104.640000", "095104.640000", "095104.640000", "095104.640000", "095104.640000", "095104.640000", "095104.656000", "095104.656000", "095104.656000", "095144.640000", "095144.640000", "095144.640000", "095144.640000", "095144.640000", "095144.640000", "095144.640000", "095144.656000", "095144.656000", "095144.656000", "095144.656000", "095144.656000", "095144.656000", "095144.656000", "095144.656000", "095144.671000", "095144.671000", "095144.671000", "095144.671000", "095144.671000", "095224.640000", "095224.640000", "095224.640000", "095224.640000", "095224.640000", "095224.640000", "095224.640000", "095224.656000", "095224.656000", "095224.656000", "095224.656000", "095224.656000", "095224.656000", "095224.656000", "095224.671000", "095224.671000", "095224.671000", "095224.671000", "095224.671000", "095224.671000", "095304.640000", "095304.640000", "095304.640000", "095304.640000", "095304.640000", "095304.640000", "095304.640000", "095304.640000", "095304.656000", "095304.656000", "095304.656000", "095304.656000", "095304.656000", "095304.656000", "095304.656000", "095304.671000", "095304.671000", "095304.671000", "095304.671000", "095304.671000", "095344.640000", "095344.640000", "095344.640000", "095344.640000", "095344.640000", "095344.640000", "095344.640000", "095344.656000", "095344.656000", "095344.656000", "095344.656000", "095344.656000", "095344.656000", "095344.656000", "095344.656000", "095344.671000", "095344.671000", "095344.671000", "095344.671000", "095344.671000", "095424.640000", "095424.640000", "095424.640000", "095424.640000", "095424.640000", "095424.640000", "095424.640000", "095424.656000", "095424.656000", "095424.656000", "095424.656000", "095424.656000", "095424.656000", "095424.656000", "095424.656000", "095424.671000", "095424.671000", "095424.671000", "095424.671000", "095424.671000", "095504.640000", "095504.640000", "095504.640000", "095504.640000", "095504.640000", "095504.640000", "095504.640000", "095504.656000", "095504.656000", "095504.656000", "095504.656000", "095504.656000", "095504.656000", "095504.656000", "095504.656000", "095504.671000", "095504.671000", "095504.671000", "095504.671000", "095504.671000", "095544.640000", "095544.640000", "095544.640000", "095544.640000", "095544.640000", "095544.640000", "095544.640000", "095544.656000", "095544.656000", "095544.656000", "095544.656000", "095544.656000", "095544.656000", "095544.656000", "095544.671000", "095544.671000", "095544.671000", "095544.671000", "095544.671000", "095544.671000", "095624.640000", "095624.640000", "095624.640000", "095624.640000", "095624.640000", "095624.640000", "095624.640000", "095624.656000", "095624.656000", "095624.656000", "095624.656000", "095624.656000", "095624.656000", "095624.656000", "095624.671000", "095624.671000", "095624.671000", "095624.671000", "095624.671000", "095624.671000", "095704.640000", "095704.640000", "095704.640000", "095704.640000", "095704.640000", "095704.640000", "095704.640000", "095704.656000", "095704.656000", "095704.656000", "095704.656000", "095704.656000", "095704.656000", "095704.671000", "095704.671000", "095704.671000", "095704.671000", "095704.671000", "095704.671000", "095704.671000", "095744.640000", "095744.640000", "095744.640000", "095744.640000", "095744.640000", "095744.640000", "095744.640000", "095744.656000", "095744.656000", "095744.656000", "095744.656000", "095744.656000", "095744.656000", "095744.656000", "095744.656000", "095744.671000", "095744.671000", "095744.671000", "095744.671000", "095744.671000", "095751.265000", "095751.265000", "095751.265000", "095751.265000"],
      "InstanceCreationTime": ["095044.640000", "095044.640000", "095044.640000", "095044.640000", "095044.640000", "095044.656000", "095044.656000", "095044.656000", "095044.656000", "095044.656000", "095044.656000", "095044.656000", "095044.671000", "095044.671000", "095044.671000", "095044.671000", "095044.671000", "095044.671000", "095044.671000", "095044.687000", "095044.687000", "095044.687000", "095044.687000", "095044.687000", "095044.687000", "095044.687000", "095104.640000", "095104.640000", "095104.640000", "095104.640000", "095104.640000", "095104.640000", "095104.640000", "095104.656000", "095104.656000", "095104.656000", "095144.640000", "095144.640000", "095144.640000", "095144.640000", "095144.640000", "095144.640000", "095144.640000", "095144.656000", "095144.656000", "095144.656000", "095144.656000", "095144.656000", "095144.656000", "095144.656000", "095144.656000", "095144.671000", "095144.671000", "095144.671000", "095144.671000", "095144.671000", "095224.640000", "095224.640000", "095224.640000", "095224.640000", "095224.640000", "095224.640000", "095224.640000", "095224.656000", "095224.656000", "095224.656000", "095224.656000", "095224.656000", "095224.656000", "095224.656000", "095224.671000", "095224.671000", "095224.671000", "095224.671000", "095224.671000", "095224.671000", "095304.640000", "095304.640000", "095304.640000", "095304.640000", "095304.640000", "095304.640000", "095304.640000", "095304.640000", "095304.656000", "095304.656000", "095304.656000", "095304.656000", "095304.656000", "095304.656000", "095304.656000", "095304.671000", "095304.671000", "095304.671000", "095304.671000", "095304.671000", "095344.640000", "095344.640000", "095344.640000", "095344.640000", "095344.640000", "095344.640000", "095344.640000", "095344.656000", "095344.656000", "095344.656000", "095344.656000", "095344.656000", "095344.656000", "095344.656000", "095344.656000", "095344.671000", "095344.671000", "095344.671000", "095344.671000", "095344.671000", "095424.640000", "095424.640000", "095424.640000", "095424.640000", "095424.640000", "095424.640000", "095424.640000", "095424.656000", "095424.656000", "095424.656000", "095424.656000", "095424.656000", "095424.656000", "095424.656000", "095424.656000", "095424.671000", "095424.671000", "095424.671000", "095424.671000", "095424.671000", "095504.640000", "095504.640000", "095504.640000", "095504.640000", "095504.640000", "095504.640000", "095504.640000", "095504.656000", "095504.656000", "095504.656000", "095504.656000", "095504.656000", "095504.656000", "095504.656000", "095504.656000", "095504.671000", "095504.671000", "095504.671000", "095504.671000", "095504.671000", "095544.640000", "095544.640000", "095544.640000", "095544.640000", "095544.640000", "095544.640000", "095544.640000", "095544.656000", "095544.656000", "095544.656000", "095544.656000", "095544.656000", "095544.656000", "095544.656000", "095544.671000", "095544.671000", "095544.671000", "095544.671000", "095544.671000", "095544.671000", "095624.640000", "095624.640000", "095624.640000", "095624.640000", "095624.640000", "095624.640000", "095624.640000", "095624.656000", "095624.656000", "095624.656000", "095624.656000", "095624.656000", "095624.656000", "095624.656000", "095624.671000", "095624.671000", "095624.671000", "095624.671000", "095624.671000", "095624.671000", "095704.640000", "095704.640000", "095704.640000", "095704.640000", "095704.640000", "095704.640000", "095704.640000", "095704.656000", "095704.656000", "095704.656000", "095704.656000", "095704.656000", "095704.656000", "095704.671000", "095704.671000", "095704.671000", "095704.671000", "095704.671000", "095704.671000", "095704.671000", "095744.640000", "095744.640000", "095744.640000", "095744.640000", "095744.640000", "095744.640000", "095744.640000", "095744.656000", "095744.656000", "095744.656000", "095744.656000", "095744.656000", "095744.656000", "095744.656000", "095744.656000", "095744.671000", "095744.671000", "095744.671000", "095744.671000", "095744.671000", "095751.265000", "095751.265000", "095751.265000", "095751.265000"],
      "InstanceNumber": [1, 2, 3, 4, 5, 6, 7, 8, 9, 10, 11, 12, 13, 14, 15, 16, 17, 18, 19, 20, 21, 22, 23, 24, 25, 26, 27, 28, 29, 30, 31, 32, 33, 34, 35, 36, 37, 38, 39, 40, 41, 42, 43, 44, 45, 46, 47, 48, 49, 50, 51, 52, 53, 54, 55, 56, 57, 58, 59, 60, 61, 62, 63, 64, 65, 66, 67, 68, 69, 70, 71, 72, 73, 74, 75, 76, 77, 78, 79, 80, 81, 82, 83, 84, 85, 86, 87, 88, 89, 90, 91, 92, 93, 94, 95, 96, 97, 98, 99, 100, 101, 102, 103, 104, 105, 106, 107, 108, 109, 110, 111, 112, 113, 114, 115, 116, 117, 118, 119, 120, 121, 122, 123, 124, 125, 126, 127, 128, 129, 130, 131, 132, 133, 134, 135, 136, 137, 138, 139, 140, 141, 142, 143, 144, 145, 146, 147, 148, 149, 150, 151, 152, 153, 154, 155, 156, 157, 158, 159, 160, 161, 162, 163, 164, 165, 166, 167, 168, 169, 170, 171, 172, 173, 174, 175, 176, 177, 178, 179, 180, 181, 182, 183, 184, 185, 186, 187, 188, 189, 190, 191, 192, 193, 194, 195, 196, 197, 198, 199, 200, 201, 202, 203, 204, 205, 206, 207, 208, 209, 210, 211, 212, 213, 214, 215, 216, 217, 218, 219, 220, 221, 222, 223, 224, 225, 226, 227, 228, 229, 230, 231, 232, 233, 234, 235, 236, 237, 238, 239, 240],
      "LargestImagePixelValue": [2124, 2068, 2084, 1977, 1925, 1906, 1891, 1935, 1985, 1943, 1926, 1936, 1896, 1914, 1980, 1989, 1995, 1985, 2010, 1979, 1966, 1927, 1972, 1929, 2012, 2032, 1965, 1955, 1925, 1978, 1970, 1943, 1942, 2059, 2049, 1956, 1975, 1967, 1926, 1948, 1925, 1854, 2078, 1971, 1928, 1918, 1903, 1916, 2017, 1966, 1974, 1993, 1949, 1945, 2041, 2002, 1961, 2064, 1953, 1785, 1751, 2029, 1984, 1945, 1787, 1734, 2059, 1954, 1935, 1963, 2086, 1879, 2049, 1954, 1992, 1924, 1993, 1801, 1798, 2056, 1986, 2047, 2003, 1969, 1964, 1912, 1776, 1745, 2006, 2009, 1954, 1902, 1973, 1792, 1769, 1733, 1733, 1808, 2043, 1950, 1930, 2003, 1960, 2032, 2069, 2010, 1973, 1958, 2070, 1971, 1983, 1964, 1982, 1973, 1938, 1977, 1920, 1978, 1895, 1923, 1782, 1784, 2049, 1956, 1915, 1830, 2064, 2002, 1895, 1781, 1854, 1746, 1768, 1755, 1729, 1747, 1763, 1749, 1756, 1808, 1780, 1771, 1807, 1743, 1750, 1731, 1760, 1778, 1759, 1762, 1760, 1744, 1810, 1824, 1793, 1782, 1746, 1769, 1771, 1749, 1797, 1771, 1802, 1781, 1788, 1812, 1792, 1907, 2406, 1964, 1979, 2024, 1965, 1949, 1935, 2113, 1932, 2023, 1928, 1997, 1911, 1948, 2053, 1927, 2007, 1909, 2027, 1898, 1871, 1878, 2002, 1894, 1984, 1944, 1941, 1997, 1941, 1959, 1942, 1908, 1992, 2008, 1891, 1830, 1737, 2040, 2008, 1918, 1972, 1782, 1831, 1765, 1964, 1889, 1875, 1840, 2021, 2113, 2124, 1984, 1869, 2112, 1952, 1970, 2012, 1892, 1982, 1964, 1991, 1975, 1971, 1969, 1960, 1980, 1957, 2003, 1983, 1922, 1974, 1971],
      "WindowCenter": [816.0, 811.0, 811.0, 812.0, 811.0, 811.0, 813.0, 811.0, 813.0, 813.0, 810.0, 810.0, 810.0, 811.0, 811.0, 811.0, 811.0, 815.0, 814.0, 815.0, 811.0, 814.0, 815.0, 813.0, 815.0, 813.0, 811.0, 810.0, 813.0, 812.0, 814.0, 812.0, 813.0, 813.0, 812.0, 814.0, 813.0, 813.0, 812.0, 814.0, 812.0, 813.0, 813.0, 813.0, 813.0, 813.0, 810.0, 811.0, 812.0, 810.0, 811.0, 814.0, 814.0, 812.0, 813.0, 812.0, 812.0, 812.0, 813.0, 814.0, 814.0, 816.0, 815.0, 815.0, 812.0, 812.0, 814.0, 812.0, 814.0, 812.0, 813.0, 812.0, 813.0, 813.0, 815.0, 815.0, 814.0, 812.0, 813.0, 815.0, 814.0, 816.0, 815.0, 814.0, 812.0, 813.0, 812.0, 811.0, 812.0, 814.0, 815.0, 815.0, 815.0, 813.0, 812.0, 813.0, 813.0, 813.0, 816.0, 814.0, 818.0, 816.0, 815.0, 813.0, 812.0, 811.0, 813.0, 811.0, 812.0, 816.0, 816.0, 815.0, 814.0, 813.0, 813.0, 813.0, 812.0, 814.0, 814.0, 812.0, 814.0, 813.0, 814.0, 817.0, 816.0, 816.0, 815.0, 816.0, 815.0, 814.0, 815.0, 814.0, 815.0, 815.0, 815.0, 816.0, 816.0, 815.0, 817.0, 817.0, 816.0, 816.0, 815.0, 817.0, 818.0, 816.0, 818.0, 817.0, 817.0, 818.0, 816.0, 817.0, 816.0, 815.0, 817.0, 816.0, 817.0, 817.0, 815.0, 816.0, 816.0, 815.0, 817.0, 818.0, 816.0, 819.0, 819.0, 819.0, 820.0, 819.0, 817.0, 815.0, 812.0, 813.0, 811.0, 813.0, 811.0, 813.0, 811.0, 813.0, 812.0, 813.0, 814.0, 813.0, 814.0, 816.0, 818.0, 815.0, 816.0, 815.0, 818.0, 816.0, 818.0, 815.0, 816.0, 814.0, 815.0, 817.0, 816.0, 817.0, 815.0, 817.0, 817.0, 817.0, 815.0, 816.0, 819.0, 817.0, 817.0, 815.0, 815.0, 815.0, 817.0, 817.0, 817.0, 817.0, 819.0, 820.0, 818.0, 819.0, 817.0, 822.0, 818.0, 817.0, 814.0, 812.0, 814.0, 812.0, 814.0, 815.0, 813.0, 815.0, 813.0, 814.0, 816.0, 815.0, 814.0, 814.0, 817.0, 815.0],
      "WindowWidth": [1687.0, 1675.0, 1676.0, 1677.0, 1675.0, 1674.0, 1679.0, 1675.0, 1678.0, 1679.0, 1672.0, 1673.0, 1672.0, 1674.0, 1674.0, 1675.0, 1676.0, 1685.0, 1683.0, 1683.0, 1676.0, 1682.0, 1684.0, 1681.0, 1685.0, 1680.0, 1675.0, 1672.0, 1680.0, 1677.0, 1681.0, 1677.0, 1680.0, 1681.0, 1679.0, 1682.0, 1679.0, 1679.0, 1677.0, 1681.0, 1678.0, 1679.0, 1680.0, 1679.0, 1680.0, 1679.0, 1673.0, 1675.0, 1676.0, 1674.0, 1675.0, 1682.0, 1680.0, 1677.0, 1680.0, 1676.0, 1676.0, 1678.0, 1679.0, 1682.0, 1681.0, 1687.0, 1683.0, 1683.0, 1676.0, 1677.0, 1683.0, 1678.0, 1681.0, 1678.0, 1680.0, 1676.0, 1679.0, 1680.0, 1686.0, 1684.0, 1682.0, 1677.0, 1678.0, 1685.0, 1683.0, 1687.0, 1684.0, 1681.0, 1676.0, 1679.0, 1675.0, 1674.0, 1679.0, 1683.0, 1685.0, 1684.0, 1683.0, 1678.0, 1677.0, 1679.0, 1678.0, 1680.0, 1688.0, 1682.0, 1691.0, 1687.0, 1683.0, 1679.0, 1677.0, 1674.0, 1679.0, 1675.0, 1678.0, 1687.0, 1688.0, 1683.0, 1681.0, 1679.0, 1680.0, 1678.0, 1677.0, 1681.0, 1682.0, 1678.0, 1680.0, 1679.0, 1683.0, 1688.0, 1688.0, 1685.0, 1685.0, 1688.0, 1684.0, 1682.0, 1683.0, 1682.0, 1684.0, 1684.0, 1684.0, 1686.0, 1685.0, 1685.0, 1687.0, 1689.0, 1687.0, 1685.0, 1686.0, 1689.0, 1689.0, 1688.0, 1691.0, 1690.0, 1689.0, 1690.0, 1687.0, 1687.0, 1687.0, 1684.0, 1688.0, 1688.0, 1688.0, 1688.0, 1684.0, 1687.0, 1687.0, 1685.0, 1688.0, 1691.0, 1688.0, 1693.0, 1693.0, 1694.0, 1699.0, 1693.0, 1690.0, 1685.0, 1677.0, 1678.0, 1674.0, 1681.0, 1674.0, 1679.0, 1676.0, 1680.0, 1678.0, 1679.0, 1682.0, 1680.0, 1683.0, 1686.0, 1691.0, 1685.0, 1686.0, 1684.0, 1692.0, 1687.0, 1691.0, 1685.0, 1687.0, 1683.0, 1685.0, 1690.0, 1688.0, 1688.0, 1684.0, 1690.0, 1689.0, 1687.0, 1683.0, 1688.0, 1694.0, 1690.0, 1689.0, 1682.0, 1685.0, 1684.0, 1688.0, 1689.0, 1687.0, 1689.0, 1694.0, 1695.0, 1694.0, 1695.0, 1690.0, 1701.0, 1691.0, 1688.0, 1681.0, 1677.0, 1681.0, 1677.0, 1681.0, 1683.0, 1680.0, 1682.0, 1679.0, 1681.0, 1686.0, 1684.0, 1681.0, 1681.0, 1689.0, 1684.0]
    },
    "slices": {}
  }
}