{
  "AcquisitionMatrixPE": 68,
  "AcquisitionNumber": 1,
  "AcquisitionTime": "09:40:44.620000",
  "BandwidthPerPixelPhaseEncode": 31.289,
  "BaseResolution": 68,
  "CoilString": "C:HEA;HEP",
  "ConversionSoftware": "dcm2niix",
  "ConversionSoftwareVersion": "v1.0.20190902",
  "DerivedVendorReportedEchoSpacing": 0.000470002,
  "DeviceSerialNumber": "35450",
  "DwellTime": 3e-06,
  "EchoTime": 0.023,
  "EffectiveEchoSpacing": 0.000470002,
  "FlipAngle": 76,
  "ImageOrientationPatientDICOM": [0.999962, 0.0020224, 0.00848896, -4.18132e-08, 0.972776, -0.231748],
  "ImageType": [
    "ORIGINAL",
    "PRIMARY",
    "M",
    "ND",
    "MOSAIC"
],
  "ImagingFrequency": 123.219,
  "InPlanePhaseEncodingDirectionDICOM": "COL",
  "InstitutionAddress": "Univeristy_Ave._197_Newark_North_East_US_07102-1814",
  "InstitutionName": "RUBIC",
  "InstitutionalDepartmentName": "Department",
  "MRAcquisitionType": "2D",
  "MagneticFieldStrength": 3,
  "Manufacturer": "Siemens",
  "ManufacturersModelName": "TrioTim",
  "Modality": "MR",
  "PartialFourier": 1,
  "PatientPosition": "HFS",
  "PercentPhaseFOV": 100,
  "PhaseEncodingDirection": "j-",
  "PhaseEncodingSteps": 68,
  "PhaseResolution": 1,
  "PixelBandwidth": 2451,
  "ProcedureStepDescription": "Krekelberg_David",
  "ProtocolName": "ep2d_bold_RestEPI",
  "PulseSequenceDetails": "%SiemensSeq%_ep2d_bold",
  "ReceiveCoilName": "HeadMatrix",
  "ReconMatrixPE": 68,
  "RepetitionTime": 2,
  "SAR": 0.191358,
  "ScanOptions": "FS",
  "ScanningSequence": "EP",
  "SequenceName": "_epfid2d1_68",
  "SequenceVariant": "SK",
  "SeriesDescription": "ep2d_bold_RestEPI",
  "SeriesNumber": 8,
  "ShimSetting": [1986, -527, -7580, 697, 15, 76, -374, -71],
  "SliceThickness": 2.5,
  "SliceTiming": [1.9525, 1.8975, 1.84, 1.785, 1.73, 1.675, 1.6175, 1.5625, 1.5075, 1.45, 1.395, 1.34, 1.2825, 1.2275, 1.1725, 1.115, 1.06, 1.005, 0.95, 0.8925, 0.8375, 0.7825, 0.725, 0.67, 0.615, 0.5575, 0.5025, 0.4475, 0.39, 0.335, 0.28, 0.225, 0.1675, 0.1125, 0.0575, 0],
  "SoftwareVersions": "syngo_MR_B19",
  "SpacingBetweenSlices": 3,
  "StationName": "MRC35450",
  "TaskName": "rest",
  "TotalReadoutTime": 0.0314901,
  "TxRefAmp": 435.438,
  "dcmmeta_affine": [
    [-2.9998857975006104, -1.2543948457732768e-07, 0.026179632171988487, 105.60577392578125],
    [-0.00606719683855772, 2.918327569961548, -0.6952172517776489, -72.39857482910156],
    [0.025466885417699814, 0.6952437162399292, 2.9182164669036865, -58.605552673339844],
    [0.0, 0.0, 0.0, 1.0]
],
  "dcmmeta_reorient_transform": [
    [0.0, -1.0, 0.0, 67.0],
    [1.0, 0.0, 0.0, 0.0],
    [0.0, 0.0, 1.0, 0.0],
    [0.0, 0.0, 0.0, 1.0]
],
  "dcmmeta_shape": [68, 68, 36, 240],
  "dcmmeta_slice_dim": 2,
  "dcmmeta_version": 0.6,
  "global": {
    "const": {
      "AcquisitionMatrix": [68, 0, 0, 68],
      "AngioFlag": "N",
      "BitsAllocated": 16,
      "BitsStored": 12,
      "Columns": 408,
      "EchoNumbers": 1,
      "EchoTime": 23.0,
      "EchoTrainLength": 1,
      "FlipAngle": 76.0,
      "HighBit": 11,
      "ImageOrientationPatient": [0.99996192298765, 0.00202239900684, 0.00848896207399, -4.1813161e-08, 0.97277587834468, -0.2317479029263],
      "ImagePositionPatient": [-615.58632499011, -620.27649881835, 101.83783712754],
      "ImageType": [
        "ORIGINAL",
        "PRIMARY",
        "M",
        "ND",
        "MOSAIC"
],
      "ImagedNucleus": "1H",
      "ImagingFrequency": 123.218614,
      "InPlanePhaseEncodingDirection": "COL",
      "MRAcquisitionType": "2D",
      "MagneticFieldStrength": 3.0,
      "Manufacturer": "SIEMENS",
      "ManufacturerModelName": "TrioTim",
      "Modality": "MR",
      "NumberOfAverages": 1.0,
      "NumberOfPhaseEncodingSteps": 68,
      "PercentPhaseFieldOfView": 100.0,
      "PercentSampling": 100.0,
      "PerformedProcedureStepStartTime": "085933.765000",
      "PhotometricInterpretation": "MONOCHROME2",
      "PixelBandwidth": 2451.0,
      "PixelRepresentation": 0,
      "PixelSpacing": [3.0, 3.0],
      "ProtocolName": "ep2d_bold_RestEPI",
      "RepetitionTime": 2000.0,
      "Rows": 408,
      "SAR": 0.19135827292071,
      "SamplesPerPixel": 1,
      "ScanOptions": "FS",
      "ScanningSequence": "EP",
      "SequenceName": "*epfid2d1_68",
      "SequenceVariant": "SK",
      "SeriesDescription": "ep2d_bold_RestEPI",
      "SeriesNumber": 8,
      "SeriesTime": "094104.015000",
      "SliceLocation": -39.308743459734,
      "SliceThickness": 2.5,
      "SmallestImagePixelValue": 0,
      "SoftwareVersions": "syngo MR B19",
      "SpacingBetweenSlices": 2.999999978053,
      "SpecificCharacterSet": "ISO_IR 100",
      "StudyID": "1",
      "StudyTime": "085933.437000",
      "TransmitCoilName": "Body",
      "VariableFlipAngleFlag": "N",
      "WindowCenterWidthExplanation": "Algo1",
      "dBdt": 0.0},
    "slices": {}
  },
  "time": {
    "samples": {
      "AcquisitionNumber": [1, 2, 3, 4, 5, 6, 7, 8, 9, 10, 11, 12, 13, 14, 15, 16, 17, 18, 19, 20, 21, 22, 23, 24, 25, 26, 27, 28, 29, 30, 31, 32, 33, 34, 35, 36, 37, 38, 39, 40, 41, 42, 43, 44, 45, 46, 47, 48, 49, 50, 51, 52, 53, 54, 55, 56, 57, 58, 59, 60, 61, 62, 63, 64, 65, 66, 67, 68, 69, 70, 71, 72, 73, 74, 75, 76, 77, 78, 79, 80, 81, 82, 83, 84, 85, 86, 87, 88, 89, 90, 91, 92, 93, 94, 95, 96, 97, 98, 99, 100, 101, 102, 103, 104, 105, 106, 107, 108, 109, 110, 111, 112, 113, 114, 115, 116, 117, 118, 119, 120, 121, 122, 123, 124, 125, 126, 127, 128, 129, 130, 131, 132, 133, 134, 135, 136, 137, 138, 139, 140, 141, 142, 143, 144, 145, 146, 147, 148, 149, 150, 151, 152, 153, 154, 155, 156, 157, 158, 159, 160, 161, 162, 163, 164, 165, 166, 167, 168, 169, 170, 171, 172, 173, 174, 175, 176, 177, 178, 179, 180, 181, 182, 183, 184, 185, 186, 187, 188, 189, 190, 191, 192, 193, 194, 195, 196, 197, 198, 199, 200, 201, 202, 203, 204, 205, 206, 207, 208, 209, 210, 211, 212, 213, 214, 215, 216, 217, 218, 219, 220, 221, 222, 223, 224, 225, 226, 227, 228, 229, 230, 231, 232, 233, 234, 235, 236, 237, 238, 239, 240],
      "AcquisitionTime": ["094044.620000", "094046.627500", "094048.635000", "094050.645000", "094052.652500", "094054.660000", "094056.667500", "094058.677500", "094100.685000", "094102.692500", "094104.700000", "094106.707500", "094108.717500", "094110.725000", "094112.732500", "094114.740000", "094116.747500", "094118.757500", "094120.765000", "094122.772500", "094124.780000", "094126.787500", "094128.797500", "094130.805000", "094132.812500", "094134.820000", "094136.830000", "094138.837500", "094140.845000", "094142.852500", "094144.860000", "094146.870000", "094148.877500", "094150.885000", "094152.892500", "094154.900000", "094156.910000", "094158.917500", "094200.925000", "094202.932500", "094204.942500", "094206.950000", "094208.957500", "094210.965000", "094212.972500", "094214.982500", "094216.990000", "094218.997500", "094221.005000", "094223.012500", "094225.022500", "094227.030000", "094229.037500", "094231.045000", "094233.055000", "094235.062500", "094237.070000", "094239.077500", "094241.085000", "094243.095000", "094245.102500", "094247.110000", "094249.117500", "094251.125000", "094253.135000", "094255.142500", "094257.150000", "094259.157500", "094301.167500", "094303.175000", "094305.182500", "094307.190000", "094309.197500", "094311.207500", "094313.215000", "094315.222500", "094317.230000", "094319.237500", "094321.247500", "094323.255000", "094325.262500", "094327.270000", "094329.277500", "094331.287500", "094333.295000", "094335.302500", "094337.310000", "094339.320000", "094341.327500", "094343.335000", "094345.342500", "094347.350000", "094349.360000", "094351.367500", "094353.375000", "094355.382500", "094357.390000", "094359.400000", "094401.407500", "094403.415000", "094405.422500", "094407.432500", "094409.440000", "094411.447500", "094413.455000", "094415.462500", "094417.472500", "094419.480000", "094421.487500", "094423.495000", "094425.502500", "094427.512500", "094429.520000", "094431.527500", "094433.535000", "094435.545000", "094437.552500", "094439.560000", "094441.567500", "094443.575000", "094445.585000", "094447.592500", "094449.600000", "094451.607500", "094453.615000", "094455.625000", "094457.632500", "094459.640000", "094501.647500", "094503.655000", "094505.665000", "094507.672500", "094509.680000", "094511.687500", "094513.697500", "094515.705000", "094517.712500", "094519.720000", "094521.727500", "094523.737500", "094525.745000", "094527.752500", "094529.760000", "094531.767500", "094533.777500", "094535.785000", "094537.792500", "094539.800000", "094541.810000", "094543.817500", "094545.825000", "094547.832500", "094549.840000", "094551.850000", "094553.857500", "094555.865000", "094557.872500", "094559.880000", "094601.890000", "094603.897500", "094605.905000", "094607.912500", "094609.922500", "094611.930000", "094613.937500", "094615.945000", "094617.952500", "094619.962500", "094621.970000", "094623.977500", "094625.985000", "094627.992500", "094630.002500", "094632.010000", "094634.017500", "094636.025000", "094638.032500", "094640.042500", "094642.050000", "094644.057500", "094646.065000", "094648.075000", "094650.082500", "094652.090000", "094654.097500", "094656.105000", "094658.115000", "094700.122500", "094702.130000", "094704.137500", "094706.145000", "094708.155000", "094710.162500", "094712.170000", "094714.177500", "094716.187500", "094718.195000", "094720.202500", "094722.210000", "094724.217500", "094726.227500", "094728.235000", "094730.242500", "094732.250000", "094734.257500", "094736.267500", "094738.275000", "094740.282500", "094742.290000", "094744.300000", "094746.307500", "094748.315000", "094750.322500", "094752.330000", "094754.340000", "094756.347500", "094758.355000", "094800.362500", "094802.370000", "094804.380000", "094806.387500", "094808.395000", "094810.402500", "094812.410000", "094814.420000", "094816.427500", "094818.435000", "094820.442500", "094822.452500", "094824.460000", "094826.467500", "094828.475000", "094830.482500", "094832.492500", "094834.500000", "094836.507500", "094838.515000", "094840.522500", "094842.532500", "094844.540000"],
      "ContentTime": ["094104.015000", "094104.015000", "094104.015000", "094104.015000", "094104.015000", "094104.031000", "094104.031000", "094104.031000", "094104.031000", "094144.015000", "094144.015000", "094144.015000", "094144.015000", "094144.015000", "094144.015000", "094144.015000", "094144.031000", "094144.031000", "094144.031000", "094144.031000", "094144.031000", "094144.031000", "094144.031000", "094144.031000", "094144.046000", "094144.046000", "094144.046000", "094144.046000", "094144.046000", "094224.015000", "094224.015000", "094224.015000", "094224.015000", "094224.015000", "094224.015000", "094224.015000", "094224.015000", "094224.031000", "094224.031000", "094224.031000", "094224.031000", "094224.031000", "094224.031000", "094224.031000", "094224.046000", "094224.046000", "094224.046000", "094224.046000", "094224.046000", "094304.015000", "094304.015000", "094304.015000", "094304.015000", "094304.015000", "094304.015000", "094304.015000", "094304.031000", "094304.031000", "094304.031000", "094304.031000", "094304.046000", "094304.046000", "094304.046000", "094304.046000", "094304.046000", "094304.046000", "094304.046000", "094304.046000", "094304.062000", "094344.015000", "094344.015000", "094344.015000", "094344.015000", "094344.015000", "094344.015000", "094344.015000", "094344.015000", "094344.031000", "094344.031000", "094344.031000", "094344.031000", "094344.031000", "094344.031000", "094344.031000", "094344.046000", "094344.046000", "094344.046000", "094344.046000", "094344.046000", "094424.015000", "094424.015000", "094424.015000", "094424.015000", "094424.015000", "094424.015000", "094424.015000", "094424.015000", "094424.031000", "094424.031000", "094424.031000", "094424.031000", "094424.031000", "094424.031000", "094424.031000", "094424.046000", "094424.046000", "094424.046000", "094424.046000", "094424.046000", "094504.015000", "094504.015000", "094504.015000", "094504.015000", "094504.015000", "094504.015000", "094504.015000", "094504.031000", "094504.031000", "094504.031000", "094504.031000", "094504.031000", "094504.031000", "094504.031000", "094504.046000", "094504.046000", "094504.046000", "094504.046000", "094504.046000", "094504.046000", "094544.015000", "094544.015000", "094544.015000", "094544.015000", "094544.015000", "094544.015000", "094544.015000", "094544.015000", "094544.031000", "094544.031000", "094544.031000", "094544.031000", "094544.031000", "094544.031000", "094544.031000", "094544.046000", "094544.046000", "094544.046000", "094544.046000", "094544.046000", "094624.015000", "094624.015000", "094624.015000", "094624.015000", "094624.015000", "094624.015000", "094624.015000", "094624.031000", "094624.031000", "094624.031000", "094624.031000", "094624.031000", "094624.031000", "094624.031000", "094624.031000", "094624.046000", "094624.046000", "094624.046000", "094624.046000", "094624.046000", "094704.015000", "094704.015000", "094704.015000", "094704.015000", "094704.015000", "094704.015000", "094704.015000", "094704.015000", "094704.031000", "094704.031000", "094704.031000", "094704.031000", "094704.031000", "094704.031000", "094704.031000", "094704.046000", "094704.046000", "094704.046000", "094704.046000", "094704.046000", "094744.015000", "094744.015000", "094744.015000", "094744.015000", "094744.015000", "094744.015000", "094744.015000", "094744.031000", "094744.031000", "094744.031000", "094744.031000", "094744.031000", "094744.031000", "094744.031000", "094744.031000", "094744.046000", "094744.046000", "094744.046000", "094744.046000", "094744.046000", "094824.015000", "094824.015000", "094824.015000", "094824.015000", "094824.015000", "094824.015000", "094824.015000", "094824.031000", "094824.031000", "094824.031000", "094824.031000", "094824.031000", "094824.031000", "094824.031000", "094824.031000", "094824.046000", "094824.046000", "094824.046000", "094824.046000", "094824.046000", "094844.500000", "094844.500000", "094844.500000", "094844.500000", "094844.500000", "094844.500000", "094844.515000", "094844.515000", "094844.515000", "094844.515000", "094844.515000"],
      "InstanceCreationTime": ["094104.015000", "094104.015000", "094104.015000", "094104.015000", "094104.015000", "094104.031000", "094104.031000", "094104.031000", "094104.031000", "094144.015000", "094144.015000", "094144.015000", "094144.015000", "094144.015000", "094144.015000", "094144.015000", "094144.031000", "094144.031000", "094144.031000", "094144.031000", "094144.031000", "094144.031000", "094144.031000", "094144.031000", "094144.046000", "094144.046000", "094144.046000", "094144.046000", "094144.046000", "094224.015000", "094224.015000", "094224.015000", "094224.015000", "094224.015000", "094224.015000", "094224.015000", "094224.015000", "094224.031000", "094224.031000", "094224.031000", "094224.031000", "094224.031000", "094224.031000", "094224.031000", "094224.046000", "094224.046000", "094224.046000", "094224.046000", "094224.046000", "094304.015000", "094304.015000", "094304.015000", "094304.015000", "094304.015000", "094304.015000", "094304.015000", "094304.031000", "094304.031000", "094304.031000", "094304.031000", "094304.046000", "094304.046000", "094304.046000", "094304.046000", "094304.046000", "094304.046000", "094304.046000", "094304.046000", "094304.062000", "094344.015000", "094344.015000", "094344.015000", "094344.015000", "094344.015000", "094344.015000", "094344.015000", "094344.015000", "094344.031000", "094344.031000", "094344.031000", "094344.031000", "094344.031000", "094344.031000", "094344.031000", "094344.046000", "094344.046000", "094344.046000", "094344.046000", "094344.046000", "094424.015000", "094424.015000", "094424.015000", "094424.015000", "094424.015000", "094424.015000", "094424.015000", "094424.015000", "094424.031000", "094424.031000", "094424.031000", "094424.031000", "094424.031000", "094424.031000", "094424.031000", "094424.046000", "094424.046000", "094424.046000", "094424.046000", "094424.046000", "094504.015000", "094504.015000", "094504.015000", "094504.015000", "094504.015000", "094504.015000", "094504.015000", "094504.031000", "094504.031000", "094504.031000", "094504.031000", "094504.031000", "094504.031000", "094504.031000", "094504.046000", "094504.046000", "094504.046000", "094504.046000", "094504.046000", "094504.046000", "094544.015000", "094544.015000", "094544.015000", "094544.015000", "094544.015000", "094544.015000", "094544.015000", "094544.015000", "094544.031000", "094544.031000", "094544.031000", "094544.031000", "094544.031000", "094544.031000", "094544.031000", "094544.046000", "094544.046000", "094544.046000", "094544.046000", "094544.046000", "094624.015000", "094624.015000", "094624.015000", "094624.015000", "094624.015000", "094624.015000", "094624.015000", "094624.031000", "094624.031000", "094624.031000", "094624.031000", "094624.031000", "094624.031000", "094624.031000", "094624.031000", "094624.046000", "094624.046000", "094624.046000", "094624.046000", "094624.046000", "094704.015000", "094704.015000", "094704.015000", "094704.015000", "094704.015000", "094704.015000", "094704.015000", "094704.015000", "094704.031000", "094704.031000", "094704.031000", "094704.031000", "094704.031000", "094704.031000", "094704.031000", "094704.046000", "094704.046000", "094704.046000", "094704.046000", "094704.046000", "094744.015000", "094744.015000", "094744.015000", "094744.015000", "094744.015000", "094744.015000", "094744.015000", "094744.031000", "094744.031000", "094744.031000", "094744.031000", "094744.031000", "094744.031000", "094744.031000", "094744.031000", "094744.046000", "094744.046000", "094744.046000", "094744.046000", "094744.046000", "094824.015000", "094824.015000", "094824.015000", "094824.015000", "094824.015000", "094824.015000", "094824.015000", "094824.031000", "094824.031000", "094824.031000", "094824.031000", "094824.031000", "094824.031000", "094824.031000", "094824.031000", "094824.046000", "094824.046000", "094824.046000", "094824.046000", "094824.046000", "094844.500000", "094844.500000", "094844.500000", "094844.500000", "094844.500000", "094844.500000", "094844.515000", "094844.515000", "094844.515000", "094844.515000", "094844.515000"],
      "InstanceNumber": [1, 2, 3, 4, 5, 6, 7, 8, 9, 10, 11, 12, 13, 14, 15, 16, 17, 18, 19, 20, 21, 22, 23, 24, 25, 26, 27, 28, 29, 30, 31, 32, 33, 34, 35, 36, 37, 38, 39, 40, 41, 42, 43, 44, 45, 46, 47, 48, 49, 50, 51, 52, 53, 54, 55, 56, 57, 58, 59, 60, 61, 62, 63, 64, 65, 66, 67, 68, 69, 70, 71, 72, 73, 74, 75, 76, 77, 78, 79, 80, 81, 82, 83, 84, 85, 86, 87, 88, 89, 90, 91, 92, 93, 94, 95, 96, 97, 98, 99, 100, 101, 102, 103, 104, 105, 106, 107, 108, 109, 110, 111, 112, 113, 114, 115, 116, 117, 118, 119, 120, 121, 122, 123, 124, 125, 126, 127, 128, 129, 130, 131, 132, 133, 134, 135, 136, 137, 138, 139, 140, 141, 142, 143, 144, 145, 146, 147, 148, 149, 150, 151, 152, 153, 154, 155, 156, 157, 158, 159, 160, 161, 162, 163, 164, 165, 166, 167, 168, 169, 170, 171, 172, 173, 174, 175, 176, 177, 178, 179, 180, 181, 182, 183, 184, 185, 186, 187, 188, 189, 190, 191, 192, 193, 194, 195, 196, 197, 198, 199, 200, 201, 202, 203, 204, 205, 206, 207, 208, 209, 210, 211, 212, 213, 214, 215, 216, 217, 218, 219, 220, 221, 222, 223, 224, 225, 226, 227, 228, 229, 230, 231, 232, 233, 234, 235, 236, 237, 238, 239, 240],
      "LargestImagePixelValue": [2047, 1909, 1938, 1856, 1869, 1978, 1809, 1837, 1825, 1870, 1799, 1841, 1844, 1814, 1843, 1831, 1844, 1791, 1890, 1797, 1794, 1885, 1835, 1816, 1875, 1817, 1823, 1887, 1940, 1831, 1933, 1835, 1856, 1882, 1852, 1904, 1876, 1893, 1912, 1872, 1996, 1897, 1926, 1932, 1861, 1853, 1925, 1839, 1894, 1888, 1864, 1945, 1889, 1931, 1995, 1933, 1832, 1848, 1919, 1872, 1924, 1946, 2025, 1938, 1971, 1914, 1931, 1998, 1947, 2021, 1951, 1867, 1923, 1929, 1935, 1914, 1954, 1950, 1940, 1961, 1918, 1915, 2004, 1915, 1981, 1851, 1966, 1969, 1968, 1933, 1896, 1925, 1860, 1867, 1797, 1878, 1908, 1933, 1906, 1940, 1929, 1909, 1880, 1857, 1830, 1873, 1799, 1863, 1817, 1749, 1787, 1816, 1840, 1778, 1779, 1708, 1732, 1728, 1774, 1693, 1701, 1752, 1755, 1699, 1747, 1723, 1839, 1895, 1779, 1737, 1763, 1778, 1702, 1870, 1888, 1931, 1885, 1983, 1886, 1969, 1947, 1833, 1809, 1745, 1915, 1848, 1962, 1874, 1952, 1908, 1991, 1902, 1912, 1924, 2021, 2072, 2030, 2019, 2023, 2012, 1924, 1990, 1957, 1935, 1998, 1950, 2040, 1858, 2025, 1950, 1936, 1898, 1935, 2008, 1941, 1945, 1856, 1789, 1912, 2128, 2075, 1995, 1946, 1967, 1937, 1780, 2029, 1998, 1951, 1804, 2084, 1980, 1832, 1921, 2004, 1975, 1862, 2015, 1876, 2059, 2042, 1979, 1899, 1823, 1974, 1800, 2088, 1957, 1990, 2003, 1924, 2005, 2045, 1919, 1766, 2138, 2104, 1992, 2073, 2071, 2071, 2009, 1961, 1992, 2046, 2069, 2073, 2004, 1979, 1981, 1897, 1951, 1785, 1826, 2060, 2072, 2092, 1903, 1911, 2070],
      "WindowCenter": [807.0, 803.0, 801.0, 799.0, 801.0, 803.0, 802.0, 802.0, 801.0, 802.0, 800.0, 801.0, 800.0, 800.0, 800.0, 800.0, 800.0, 800.0, 802.0, 801.0, 802.0, 802.0, 802.0, 802.0, 802.0, 802.0, 804.0, 805.0, 804.0, 802.0, 803.0, 802.0, 804.0, 804.0, 802.0, 802.0, 801.0, 803.0, 804.0, 804.0, 805.0, 803.0, 803.0, 804.0, 802.0, 802.0, 802.0, 802.0, 804.0, 803.0, 802.0, 804.0, 803.0, 804.0, 806.0, 806.0, 806.0, 806.0, 805.0, 804.0, 804.0, 804.0, 805.0, 804.0, 806.0, 807.0, 804.0, 804.0, 803.0, 807.0, 807.0, 808.0, 806.0, 805.0, 806.0, 805.0, 805.0, 804.0, 804.0, 806.0, 805.0, 806.0, 806.0, 806.0, 805.0, 808.0, 807.0, 805.0, 805.0, 804.0, 806.0, 807.0, 809.0, 806.0, 806.0, 806.0, 808.0, 806.0, 806.0, 804.0, 807.0, 806.0, 806.0, 807.0, 806.0, 806.0, 805.0, 808.0, 807.0, 807.0, 805.0, 805.0, 806.0, 805.0, 805.0, 806.0, 809.0, 807.0, 806.0, 806.0, 805.0, 807.0, 806.0, 807.0, 805.0, 804.0, 805.0, 809.0, 808.0, 806.0, 804.0, 807.0, 806.0, 806.0, 809.0, 810.0, 808.0, 807.0, 806.0, 809.0, 808.0, 808.0, 806.0, 806.0, 808.0, 809.0, 809.0, 810.0, 808.0, 809.0, 809.0, 810.0, 811.0, 810.0, 808.0, 807.0, 808.0, 809.0, 810.0, 809.0, 808.0, 808.0, 809.0, 810.0, 808.0, 808.0, 810.0, 808.0, 810.0, 810.0, 810.0, 807.0, 810.0, 809.0, 812.0, 811.0, 808.0, 807.0, 807.0, 809.0, 807.0, 810.0, 811.0, 809.0, 809.0, 809.0, 809.0, 811.0, 810.0, 809.0, 809.0, 811.0, 809.0, 810.0, 809.0, 811.0, 809.0, 808.0, 810.0, 811.0, 810.0, 811.0, 808.0, 809.0, 810.0, 810.0, 811.0, 808.0, 810.0, 808.0, 808.0, 808.0, 812.0, 810.0, 808.0, 810.0, 811.0, 812.0, 812.0, 810.0, 809.0, 809.0, 809.0, 809.0, 812.0, 811.0, 810.0, 810.0, 812.0, 810.0, 811.0, 810.0, 810.0, 810.0, 812.0, 812.0, 813.0, 810.0, 810.0, 811.0],
      "WindowWidth": [1669.0, 1660.0, 1655.0, 1651.0, 1653.0, 1660.0, 1656.0, 1657.0, 1654.0, 1658.0, 1653.0, 1654.0, 1653.0, 1652.0, 1651.0, 1652.0, 1652.0, 1651.0, 1656.0, 1655.0, 1656.0, 1658.0, 1656.0, 1657.0, 1657.0, 1657.0, 1661.0, 1664.0, 1662.0, 1656.0, 1659.0, 1657.0, 1661.0, 1663.0, 1658.0, 1658.0, 1655.0, 1659.0, 1662.0, 1661.0, 1664.0, 1658.0, 1660.0, 1663.0, 1657.0, 1657.0, 1658.0, 1657.0, 1662.0, 1658.0, 1658.0, 1662.0, 1660.0, 1661.0, 1666.0, 1666.0, 1665.0, 1666.0, 1663.0, 1661.0, 1662.0, 1662.0, 1665.0, 1661.0, 1666.0, 1667.0, 1661.0, 1660.0, 1659.0, 1668.0, 1667.0, 1669.0, 1666.0, 1663.0, 1665.0, 1664.0, 1663.0, 1661.0, 1660.0, 1665.0, 1662.0, 1666.0, 1666.0, 1666.0, 1662.0, 1670.0, 1669.0, 1663.0, 1662.0, 1661.0, 1665.0, 1670.0, 1671.0, 1664.0, 1665.0, 1664.0, 1669.0, 1666.0, 1665.0, 1661.0, 1666.0, 1664.0, 1666.0, 1667.0, 1664.0, 1664.0, 1663.0, 1670.0, 1667.0, 1665.0, 1661.0, 1662.0, 1664.0, 1661.0, 1662.0, 1664.0, 1671.0, 1667.0, 1663.0, 1664.0, 1661.0, 1665.0, 1664.0, 1666.0, 1661.0, 1659.0, 1662.0, 1672.0, 1669.0, 1664.0, 1659.0, 1665.0, 1663.0, 1665.0, 1670.0, 1673.0, 1668.0, 1666.0, 1664.0, 1671.0, 1670.0, 1667.0, 1663.0, 1662.0, 1669.0, 1672.0, 1672.0, 1674.0, 1670.0, 1672.0, 1670.0, 1673.0, 1676.0, 1673.0, 1670.0, 1667.0, 1668.0, 1671.0, 1672.0, 1671.0, 1669.0, 1670.0, 1671.0, 1673.0, 1668.0, 1669.0, 1672.0, 1668.0, 1673.0, 1673.0, 1673.0, 1667.0, 1673.0, 1671.0, 1677.0, 1675.0, 1668.0, 1666.0, 1667.0, 1672.0, 1667.0, 1673.0, 1675.0, 1671.0, 1671.0, 1670.0, 1671.0, 1677.0, 1674.0, 1671.0, 1672.0, 1675.0, 1672.0, 1672.0, 1672.0, 1676.0, 1670.0, 1669.0, 1673.0, 1676.0, 1674.0, 1674.0, 1669.0, 1671.0, 1674.0, 1673.0, 1677.0, 1669.0, 1673.0, 1669.0, 1669.0, 1667.0, 1677.0, 1673.0, 1669.0, 1674.0, 1677.0, 1678.0, 1679.0, 1674.0, 1670.0, 1672.0, 1672.0, 1669.0, 1678.0, 1675.0, 1673.0, 1672.0, 1677.0, 1673.0, 1675.0, 1674.0, 1672.0, 1673.0, 1679.0, 1677.0, 1681.0, 1674.0, 1671.0, 1674.0]
    },
    "slices": {}
  }
}