{
  "AcquisitionMatrixPE": 68,
  "AcquisitionNumber": 1,
  "AcquisitionTime": "14:03:54.375000",
  "BandwidthPerPixelPhaseEncode": 31.289,
  "BaseResolution": 68,
  "CoilString": "C:HEA;HEP",
  "ConversionSoftware": "dcm2niix",
  "ConversionSoftwareVersion": "v1.0.20190902",
  "DerivedVendorReportedEchoSpacing": 0.000470002,
  "DeviceSerialNumber": "35450",
  "DwellTime": 3e-06,
  "EchoTime": 0.023,
  "EffectiveEchoSpacing": 0.000470002,
  "FlipAngle": 76,
  "ImageOrientationPatientDICOM": [0.998027, -0.00416133, -0.0626525, -4.56857e-08, 0.997801, -0.0662739],
  "ImageType": [
    "ORIGINAL",
    "PRIMARY",
    "M",
    "ND",
    "MOSAIC"
],
  "ImagingFrequency": 123.219,
  "InPlanePhaseEncodingDirectionDICOM": "COL",
  "InstitutionAddress": "Univeristy_Ave._197_Newark_North_East_US_07102-1814",
  "InstitutionName": "RUBIC",
  "InstitutionalDepartmentName": "Department",
  "MRAcquisitionType": "2D",
  "MagneticFieldStrength": 3,
  "Manufacturer": "Siemens",
  "ManufacturersModelName": "TrioTim",
  "Modality": "MR",
  "PartialFourier": 1,
  "PatientPosition": "HFS",
  "PercentPhaseFOV": 100,
  "PhaseEncodingDirection": "j-",
  "PhaseEncodingSteps": 68,
  "PhaseResolution": 1,
  "PixelBandwidth": 2451,
  "ProcedureStepDescription": "Krekelberg_David",
  "ProtocolName": "ep2d_bold_CardGameEPI_1",
  "PulseSequenceDetails": "%SiemensSeq%_ep2d_bold",
  "ReceiveCoilName": "HeadMatrix",
  "ReconMatrixPE": 68,
  "RepetitionTime": 2,
  "SAR": 0.183974,
  "ScanOptions": "FS",
  "ScanningSequence": "EP",
  "SequenceName": "_epfid2d1_68",
  "SequenceVariant": "SK",
  "SeriesDescription": "ep2d_bold_CardGameEPI_1",
  "SeriesNumber": 8,
  "ShimSetting": [1898, -590, -7668, 882, -62, 200, -424, -23],
  "SliceThickness": 2.5,
  "SliceTiming": [1.95, 1.895, 1.84, 1.7825, 1.7275, 1.6725, 1.615, 1.56, 1.505, 1.45, 1.3925, 1.3375, 1.2825, 1.225, 1.17, 1.115, 1.0575, 1.0025, 0.9475, 0.89, 0.835, 0.78, 0.725, 0.6675, 0.6125, 0.5575, 0.5, 0.445, 0.39, 0.3325, 0.2775, 0.2225, 0.165, 0.11, 0.055, 0],
  "SoftwareVersions": "syngo_MR_B19",
  "SpacingBetweenSlices": 3,
  "StationName": "MRC35450",
  "TaskName": "cardgame",
  "TotalReadoutTime": 0.0314901,
  "TxRefAmp": 326.752,
  "dcmmeta_affine": [
    [-2.994080066680908, -1.3705708568068076e-07, -0.18837155401706696, 108.48506164550781],
    [0.012483981437981129, 2.9934043884277344, -0.19842937588691711, -76.7635269165039],
    [-0.18795742094516754, 0.19882169365882874, 2.987497568130493, -40.92658233642578],
    [0.0, 0.0, 0.0, 1.0]
],
  "dcmmeta_reorient_transform": [
    [0.0, -1.0, 0.0, 67.0],
    [1.0, 0.0, 0.0, 0.0],
    [0.0, 0.0, 1.0, 0.0],
    [0.0, 0.0, 0.0, 1.0]
],
  "dcmmeta_shape": [68, 68, 36, 258],
  "dcmmeta_slice_dim": 2,
  "dcmmeta_version": 0.6,
  "global": {
    "const": {
      "AcquisitionMatrix": [68, 0, 0, 68],
      "AngioFlag": "N",
      "BitsAllocated": 16,
      "BitsStored": 12,
      "Columns": 408,
      "EchoNumbers": 1,
      "EchoTime": 23.0,
      "EchoTrainLength": 1,
      "FlipAngle": 76.0,
      "HighBit": 11,
      "ImageOrientationPatient": [0.99802672849261, -0.0041613270076, -0.062652474587, -4.5685696e-08, 0.99780146836257, -0.0662738993383],
      "ImagePositionPatient": [-617.47866258047, -630.55104386825, 38.146921249977],
      "ImageType": [
        "ORIGINAL",
        "PRIMARY",
        "M",
        "ND",
        "MOSAIC"
],
      "ImagedNucleus": "1H",
      "ImagingFrequency": 123.218645,
      "InPlanePhaseEncodingDirection": "COL",
      "MRAcquisitionType": "2D",
      "MagneticFieldStrength": 3.0,
      "Manufacturer": "SIEMENS",
      "ManufacturerModelName": "TrioTim",
      "Modality": "MR",
      "NumberOfAverages": 1.0,
      "NumberOfPhaseEncodingSteps": 68,
      "PercentPhaseFieldOfView": 100.0,
      "PercentSampling": 100.0,
      "PerformedProcedureStepStartTime": "131936.968000",
      "PhotometricInterpretation": "MONOCHROME2",
      "PixelBandwidth": 2451.0,
      "PixelRepresentation": 0,
      "PixelSpacing": [3.0, 3.0],
      "ProtocolName": "ep2d_bold_CardGameEPI_1",
      "RepetitionTime": 2000.0,
      "Rows": 408,
      "SAR": 0.18397378479846,
      "SamplesPerPixel": 1,
      "ScanOptions": "FS",
      "ScanningSequence": "EP",
      "SequenceName": "*epfid2d1_68",
      "SequenceVariant": "SK",
      "SeriesDescription": "ep2d_bold_CardGameEPI_1",
      "SeriesNumber": 8,
      "SeriesTime": "140411.546000",
      "SliceLocation": -42.490477120767,
      "SliceThickness": 2.5,
      "SmallestImagePixelValue": 0,
      "SoftwareVersions": "syngo MR B19",
      "SpacingBetweenSlices": 2.9999999955643,
      "SpecificCharacterSet": "ISO_IR 100",
      "StudyID": "1",
      "StudyTime": "131936.937000",
      "TransmitCoilName": "Body",
      "VariableFlipAngleFlag": "N",
      "WindowCenterWidthExplanation": "Algo1",
      "dBdt": 0.0},
    "slices": {}
  },
  "time": {
    "samples": {
      "AcquisitionNumber": [1, 2, 3, 4, 5, 6, 7, 8, 9, 10, 11, 12, 13, 14, 15, 16, 17, 18, 19, 20, 21, 22, 23, 24, 25, 26, 27, 28, 29, 30, 31, 32, 33, 34, 35, 36, 37, 38, 39, 40, 41, 42, 43, 44, 45, 46, 47, 48, 49, 50, 51, 52, 53, 54, 55, 56, 57, 58, 59, 60, 61, 62, 63, 64, 65, 66, 67, 68, 69, 70, 71, 72, 73, 74, 75, 76, 77, 78, 79, 80, 81, 82, 83, 84, 85, 86, 87, 88, 89, 90, 91, 92, 93, 94, 95, 96, 97, 98, 99, 100, 101, 102, 103, 104, 105, 106, 107, 108, 109, 110, 111, 112, 113, 114, 115, 116, 117, 118, 119, 120, 121, 122, 123, 124, 125, 126, 127, 128, 129, 130, 131, 132, 133, 134, 135, 136, 137, 138, 139, 140, 141, 142, 143, 144, 145, 146, 147, 148, 149, 150, 151, 152, 153, 154, 155, 156, 157, 158, 159, 160, 161, 162, 163, 164, 165, 166, 167, 168, 169, 170, 171, 172, 173, 174, 175, 176, 177, 178, 179, 180, 181, 182, 183, 184, 185, 186, 187, 188, 189, 190, 191, 192, 193, 194, 195, 196, 197, 198, 199, 200, 201, 202, 203, 204, 205, 206, 207, 208, 209, 210, 211, 212, 213, 214, 215, 216, 217, 218, 219, 220, 221, 222, 223, 224, 225, 226, 227, 228, 229, 230, 231, 232, 233, 234, 235, 236, 237, 238, 239, 240, 241, 242, 243, 244, 245, 246, 247, 248, 249, 250, 251, 252, 253, 254, 255, 256, 257, 258],
      "AcquisitionTime": ["140354.375000", "140356.382500", "140358.392500", "140400.400000", "140402.407500", "140404.415000", "140406.425000", "140408.432500", "140410.440000", "140412.447500", "140414.455000", "140416.465000", "140418.472500", "140420.480000", "140422.487500", "140424.495000", "140426.505000", "140428.512500", "140430.520000", "140432.527500", "140434.537500", "140436.545000", "140438.552500", "140440.560000", "140442.567500", "140444.577500", "140446.585000", "140448.592500", "140450.600000", "140452.607500", "140454.617500", "140456.625000", "140458.632500", "140500.640000", "140502.647500", "140504.657500", "140506.665000", "140508.672500", "140510.680000", "140512.690000", "140514.697500", "140516.705000", "140518.712500", "140520.720000", "140522.730000", "140524.737500", "140526.745000", "140528.752500", "140530.760000", "140532.770000", "140534.777500", "140536.785000", "140538.792500", "140540.802500", "140542.810000", "140544.817500", "140546.825000", "140548.832500", "140550.842500", "140552.850000", "140554.857500", "140556.865000", "140558.872500", "140600.882500", "140602.890000", "140604.897500", "140606.905000", "140608.915000", "140610.922500", "140612.930000", "140614.937500", "140616.945000", "140618.955000", "140620.962500", "140622.970000", "140624.977500", "140626.985000", "140628.995000", "140631.002500", "140633.010000", "140635.017500", "140637.025000", "140639.035000", "140641.042500", "140643.050000", "140645.057500", "140647.067500", "140649.075000", "140651.082500", "140653.090000", "140655.097500", "140657.107500", "140659.115000", "140701.122500", "140703.130000", "140705.137500", "140707.147500", "140709.155000", "140711.162500", "140713.170000", "140715.180000", "140717.187500", "140719.195000", "140721.202500", "140723.210000", "140725.220000", "140727.227500", "140729.235000", "140731.242500", "140733.250000", "140735.260000", "140737.267500", "140739.275000", "140741.282500", "140743.292500", "140745.300000", "140747.307500", "140749.315000", "140751.322500", "140753.332500", "140755.340000", "140757.347500", "140759.355000", "140801.362500", "140803.372500", "140805.380000", "140807.387500", "140809.395000", "140811.405000", "140813.412500", "140815.420000", "140817.427500", "140819.435000", "140821.445000", "140823.452500", "140825.460000", "140827.467500", "140829.475000", "140831.485000", "140833.492500", "140835.500000", "140837.507500", "140839.515000", "140841.525000", "140843.532500", "140845.540000", "140847.547500", "140849.557500", "140851.565000", "140853.572500", "140855.580000", "140857.587500", "140859.597500", "140901.605000", "140903.612500", "140905.620000", "140907.627500", "140909.637500", "140911.645000", "140913.652500", "140915.660000", "140917.670000", "140919.677500", "140921.685000", "140923.692500", "140925.700000", "140927.710000", "140929.717500", "140931.725000", "140933.732500", "140935.740000", "140937.750000", "140939.757500", "140941.765000", "140943.772500", "140945.782500", "140947.790000", "140949.797500", "140951.805000", "140953.812500", "140955.822500", "140957.830000", "140959.837500", "141001.845000", "141003.852500", "141005.862500", "141007.870000", "141009.877500", "141011.885000", "141013.892500", "141015.902500", "141017.910000", "141019.917500", "141021.925000", "141023.935000", "141025.942500", "141027.950000", "141029.957500", "141031.965000", "141033.975000", "141035.982500", "141037.990000", "141039.997500", "141042.005000", "141044.015000", "141046.022500", "141048.030000", "141050.037500", "141052.047500", "141054.055000", "141056.062500", "141058.070000", "141100.077500", "141102.087500", "141104.095000", "141106.102500", "141108.110000", "141110.117500", "141112.127500", "141114.135000", "141116.142500", "141118.150000", "141120.160000", "141122.167500", "141124.175000", "141126.182500", "141128.190000", "141130.200000", "141132.207500", "141134.215000", "141136.222500", "141138.230000", "141140.240000", "141142.247500", "141144.255000", "141146.262500", "141148.270000", "141150.280000", "141152.287500", "141154.295000", "141156.302500", "141158.312500", "141200.320000", "141202.327500", "141204.335000", "141206.342500", "141208.352500", "141210.360000", "141212.367500", "141214.375000", "141216.382500", "141218.392500", "141220.400000", "141222.407500", "141224.415000", "141226.425000", "141228.432500", "141230.440000"],
      "ContentTime": ["140411.546000", "140411.546000", "140411.562000", "140411.562000", "140411.562000", "140411.562000", "140411.562000", "140411.562000", "140411.562000", "140411.562000", "140451.546000", "140451.546000", "140451.546000", "140451.546000", "140451.546000", "140451.562000", "140451.562000", "140451.562000", "140451.562000", "140451.562000", "140451.562000", "140451.562000", "140451.578000", "140451.578000", "140451.578000", "140451.578000", "140451.578000", "140451.578000", "140451.578000", "140451.578000", "140531.546000", "140531.546000", "140531.546000", "140531.546000", "140531.562000", "140531.562000", "140531.562000", "140531.562000", "140531.562000", "140531.562000", "140531.562000", "140531.562000", "140531.578000", "140531.578000", "140531.578000", "140531.578000", "140531.578000", "140531.578000", "140531.578000", "140531.578000", "140611.546000", "140611.546000", "140611.546000", "140611.546000", "140611.562000", "140611.562000", "140611.562000", "140611.562000", "140611.562000", "140611.562000", "140611.562000", "140611.562000", "140611.578000", "140611.578000", "140611.578000", "140611.578000", "140611.578000", "140611.578000", "140611.578000", "140611.593000", "140651.546000", "140651.546000", "140651.546000", "140651.546000", "140651.562000", "140651.562000", "140651.562000", "140651.562000", "140651.562000", "140651.562000", "140651.562000", "140651.562000", "140651.578000", "140651.578000", "140651.578000", "140651.578000", "140651.578000", "140651.578000", "140651.578000", "140651.578000", "140731.546000", "140731.546000", "140731.546000", "140731.546000", "140731.562000", "140731.562000", "140731.562000", "140731.562000", "140731.562000", "140731.562000", "140731.562000", "140731.562000", "140731.578000", "140731.578000", "140731.578000", "140731.578000", "140731.578000", "140731.578000", "140731.578000", "140731.578000", "140811.546000", "140811.546000", "140811.546000", "140811.546000", "140811.562000", "140811.562000", "140811.562000", "140811.562000", "140811.562000", "140811.562000", "140811.562000", "140811.562000", "140811.578000", "140811.578000", "140811.578000", "140811.578000", "140811.578000", "140811.578000", "140811.578000", "140811.578000", "140851.546000", "140851.546000", "140851.546000", "140851.546000", "140851.562000", "140851.562000", "140851.562000", "140851.562000", "140851.562000", "140851.562000", "140851.562000", "140851.562000", "140851.578000", "140851.578000", "140851.578000", "140851.578000", "140851.578000", "140851.578000", "140851.578000", "140851.578000", "140931.546000", "140931.546000", "140931.546000", "140931.546000", "140931.546000", "140931.562000", "140931.562000", "140931.562000", "140931.562000", "140931.562000", "140931.562000", "140931.562000", "140931.578000", "140931.578000", "140931.578000", "140931.578000", "140931.578000", "140931.578000", "140931.578000", "140931.578000", "141011.546000", "141011.546000", "141011.546000", "141011.546000", "141011.562000", "141011.562000", "141011.562000", "141011.562000", "141011.562000", "141011.562000", "141011.562000", "141011.562000", "141011.578000", "141011.578000", "141011.578000", "141011.578000", "141011.578000", "141011.578000", "141011.578000", "141011.578000", "141051.546000", "141051.546000", "141051.546000", "141051.546000", "141051.562000", "141051.562000", "141051.562000", "141051.562000", "141051.562000", "141051.562000", "141051.562000", "141051.562000", "141051.578000", "141051.578000", "141051.578000", "141051.578000", "141051.578000", "141051.578000", "141051.578000", "141051.578000", "141131.546000", "141131.546000", "141131.546000", "141131.546000", "141131.562000", "141131.562000", "141131.562000", "141131.562000", "141131.562000", "141131.562000", "141131.562000", "141131.562000", "141131.578000", "141131.578000", "141131.578000", "141131.578000", "141131.578000", "141131.578000", "141131.578000", "141131.578000", "141211.546000", "141211.546000", "141211.546000", "141211.546000", "141211.562000", "141211.562000", "141211.562000", "141211.562000", "141211.562000", "141211.562000", "141211.562000", "141211.562000", "141211.578000", "141211.578000", "141211.578000", "141211.578000", "141211.578000", "141211.578000", "141211.578000", "141211.578000", "141226.703000", "141226.703000", "141226.703000", "141226.718000", "141226.718000", "141226.718000", "141226.718000", "141226.718000"],
      "InstanceCreationTime": ["140411.546000", "140411.546000", "140411.562000", "140411.562000", "140411.562000", "140411.562000", "140411.562000", "140411.562000", "140411.562000", "140411.562000", "140451.546000", "140451.546000", "140451.546000", "140451.546000", "140451.546000", "140451.562000", "140451.562000", "140451.562000", "140451.562000", "140451.562000", "140451.562000", "140451.562000", "140451.578000", "140451.578000", "140451.578000", "140451.578000", "140451.578000", "140451.578000", "140451.578000", "140451.578000", "140531.546000", "140531.546000", "140531.546000", "140531.546000", "140531.562000", "140531.562000", "140531.562000", "140531.562000", "140531.562000", "140531.562000", "140531.562000", "140531.562000", "140531.578000", "140531.578000", "140531.578000", "140531.578000", "140531.578000", "140531.578000", "140531.578000", "140531.578000", "140611.546000", "140611.546000", "140611.546000", "140611.546000", "140611.562000", "140611.562000", "140611.562000", "140611.562000", "140611.562000", "140611.562000", "140611.562000", "140611.562000", "140611.578000", "140611.578000", "140611.578000", "140611.578000", "140611.578000", "140611.578000", "140611.578000", "140611.593000", "140651.546000", "140651.546000", "140651.546000", "140651.546000", "140651.562000", "140651.562000", "140651.562000", "140651.562000", "140651.562000", "140651.562000", "140651.562000", "140651.562000", "140651.578000", "140651.578000", "140651.578000", "140651.578000", "140651.578000", "140651.578000", "140651.578000", "140651.578000", "140731.546000", "140731.546000", "140731.546000", "140731.546000", "140731.562000", "140731.562000", "140731.562000", "140731.562000", "140731.562000", "140731.562000", "140731.562000", "140731.562000", "140731.578000", "140731.578000", "140731.578000", "140731.578000", "140731.578000", "140731.578000", "140731.578000", "140731.578000", "140811.546000", "140811.546000", "140811.546000", "140811.546000", "140811.562000", "140811.562000", "140811.562000", "140811.562000", "140811.562000", "140811.562000", "140811.562000", "140811.562000", "140811.578000", "140811.578000", "140811.578000", "140811.578000", "140811.578000", "140811.578000", "140811.578000", "140811.578000", "140851.546000", "140851.546000", "140851.546000", "140851.546000", "140851.562000", "140851.562000", "140851.562000", "140851.562000", "140851.562000", "140851.562000", "140851.562000", "140851.562000", "140851.578000", "140851.578000", "140851.578000", "140851.578000", "140851.578000", "140851.578000", "140851.578000", "140851.578000", "140931.546000", "140931.546000", "140931.546000", "140931.546000", "140931.546000", "140931.562000", "140931.562000", "140931.562000", "140931.562000", "140931.562000", "140931.562000", "140931.562000", "140931.578000", "140931.578000", "140931.578000", "140931.578000", "140931.578000", "140931.578000", "140931.578000", "140931.578000", "141011.546000", "141011.546000", "141011.546000", "141011.546000", "141011.562000", "141011.562000", "141011.562000", "141011.562000", "141011.562000", "141011.562000", "141011.562000", "141011.562000", "141011.578000", "141011.578000", "141011.578000", "141011.578000", "141011.578000", "141011.578000", "141011.578000", "141011.578000", "141051.546000", "141051.546000", "141051.546000", "141051.546000", "141051.562000", "141051.562000", "141051.562000", "141051.562000", "141051.562000", "141051.562000", "141051.562000", "141051.562000", "141051.578000", "141051.578000", "141051.578000", "141051.578000", "141051.578000", "141051.578000", "141051.578000", "141051.578000", "141131.546000", "141131.546000", "141131.546000", "141131.546000", "141131.562000", "141131.562000", "141131.562000", "141131.562000", "141131.562000", "141131.562000", "141131.562000", "141131.562000", "141131.578000", "141131.578000", "141131.578000", "141131.578000", "141131.578000", "141131.578000", "141131.578000", "141131.578000", "141211.546000", "141211.546000", "141211.546000", "141211.546000", "141211.562000", "141211.562000", "141211.562000", "141211.562000", "141211.562000", "141211.562000", "141211.562000", "141211.562000", "141211.578000", "141211.578000", "141211.578000", "141211.578000", "141211.578000", "141211.578000", "141211.578000", "141211.578000", "141226.703000", "141226.703000", "141226.703000", "141226.718000", "141226.718000", "141226.718000", "141226.718000", "141226.718000"],
      "InstanceNumber": [1, 2, 3, 4, 5, 6, 7, 8, 9, 10, 11, 12, 13, 14, 15, 16, 17, 18, 19, 20, 21, 22, 23, 24, 25, 26, 27, 28, 29, 30, 31, 32, 33, 34, 35, 36, 37, 38, 39, 40, 41, 42, 43, 44, 45, 46, 47, 48, 49, 50, 51, 52, 53, 54, 55, 56, 57, 58, 59, 60, 61, 62, 63, 64, 65, 66, 67, 68, 69, 70, 71, 72, 73, 74, 75, 76, 77, 78, 79, 80, 81, 82, 83, 84, 85, 86, 87, 88, 89, 90, 91, 92, 93, 94, 95, 96, 97, 98, 99, 100, 101, 102, 103, 104, 105, 106, 107, 108, 109, 110, 111, 112, 113, 114, 115, 116, 117, 118, 119, 120, 121, 122, 123, 124, 125, 126, 127, 128, 129, 130, 131, 132, 133, 134, 135, 136, 137, 138, 139, 140, 141, 142, 143, 144, 145, 146, 147, 148, 149, 150, 151, 152, 153, 154, 155, 156, 157, 158, 159, 160, 161, 162, 163, 164, 165, 166, 167, 168, 169, 170, 171, 172, 173, 174, 175, 176, 177, 178, 179, 180, 181, 182, 183, 184, 185, 186, 187, 188, 189, 190, 191, 192, 193, 194, 195, 196, 197, 198, 199, 200, 201, 202, 203, 204, 205, 206, 207, 208, 209, 210, 211, 212, 213, 214, 215, 216, 217, 218, 219, 220, 221, 222, 223, 224, 225, 226, 227, 228, 229, 230, 231, 232, 233, 234, 235, 236, 237, 238, 239, 240, 241, 242, 243, 244, 245, 246, 247, 248, 249, 250, 251, 252, 253, 254, 255, 256, 257, 258],
      "LargestImagePixelValue": [1663, 1601, 1587, 1584, 1585, 1587, 1586, 1617, 1574, 1563, 1581, 1587, 1576, 1603, 1583, 1609, 1602, 1591, 1599, 1592, 1605, 1608, 1588, 1584, 1603, 1579, 1572, 1580, 1554, 1583, 1584, 1574, 1572, 1562, 1580, 1551, 1560, 1557, 1559, 1573, 1564, 1575, 1554, 1605, 1578, 1576, 1573, 1586, 1582, 1569, 1600, 1593, 1583, 1584, 1589, 1584, 1574, 1619, 1601, 1609, 1621, 1588, 1574, 1577, 1590, 1591, 1579, 1553, 1599, 1627, 1615, 1576, 1571, 1596, 1604, 1593, 1605, 1596, 1611, 1588, 1606, 1620, 1610, 1620, 1596, 1623, 1611, 1610, 1602, 1613, 1613, 1602, 1617, 1598, 1625, 1602, 1637, 1631, 1618, 1592, 1594, 1579, 1565, 1571, 1580, 1593, 1589, 1596, 1608, 1609, 1604, 1602, 1627, 1615, 1622, 1614, 1635, 1642, 1649, 1635, 1657, 1598, 1635, 1627, 1647, 1628, 1631, 1655, 1605, 1603, 1593, 1612, 1622, 1588, 1615, 1616, 1625, 1617, 1637, 1617, 1616, 1624, 1609, 1632, 1615, 1627, 1623, 1590, 1633, 1607, 1607, 1622, 1633, 1618, 1593, 1615, 1587, 1597, 1600, 1585, 1585, 1605, 1609, 1592, 1585, 1621, 1615, 1614, 1598, 1605, 1602, 1593, 1613, 1607, 1615, 1638, 1612, 1601, 1583, 1575, 1624, 1580, 1617, 1591, 1593, 1599, 1587, 1623, 1613, 1616, 1612, 1614, 1603, 1613, 1596, 1618, 1609, 1613, 1634, 1622, 1611, 1646, 1627, 1629, 1596, 1601, 1608, 1676, 1643, 1610, 1630, 1618, 1622, 1589, 1618, 1612, 1623, 1631, 1592, 1617, 1606, 1595, 1610, 1623, 1609, 1627, 1605, 1610, 1617, 1604, 1607, 1612, 1613, 1635, 1620, 1602, 1603, 1623, 1629, 1620, 1638, 1626, 1623, 1597, 1591, 1599, 1616, 1601, 1577, 1625, 1608, 1603, 1587, 1594, 1611, 1595, 1604, 1609],
      "WindowCenter": [786.0, 783.0, 782.0, 782.0, 781.0, 782.0, 781.0, 781.0, 781.0, 781.0, 782.0, 783.0, 783.0, 783.0, 782.0, 782.0, 782.0, 783.0, 783.0, 783.0, 782.0, 781.0, 783.0, 783.0, 784.0, 787.0, 784.0, 785.0, 785.0, 783.0, 783.0, 783.0, 782.0, 780.0, 781.0, 781.0, 783.0, 783.0, 783.0, 783.0, 782.0, 783.0, 783.0, 783.0, 783.0, 783.0, 784.0, 784.0, 784.0, 783.0, 784.0, 784.0, 785.0, 785.0, 785.0, 784.0, 785.0, 787.0, 784.0, 785.0, 784.0, 783.0, 783.0, 782.0, 782.0, 783.0, 783.0, 781.0, 785.0, 785.0, 785.0, 784.0, 784.0, 785.0, 785.0, 784.0, 785.0, 785.0, 785.0, 786.0, 786.0, 786.0, 785.0, 785.0, 784.0, 785.0, 786.0, 786.0, 787.0, 785.0, 789.0, 787.0, 786.0, 785.0, 787.0, 785.0, 785.0, 784.0, 784.0, 784.0, 786.0, 785.0, 784.0, 785.0, 785.0, 785.0, 786.0, 786.0, 786.0, 786.0, 787.0, 786.0, 787.0, 787.0, 786.0, 786.0, 788.0, 788.0, 791.0, 787.0, 785.0, 785.0, 785.0, 785.0, 784.0, 785.0, 786.0, 785.0, 784.0, 788.0, 787.0, 787.0, 786.0, 786.0, 786.0, 786.0, 786.0, 786.0, 786.0, 786.0, 787.0, 787.0, 787.0, 787.0, 787.0, 789.0, 788.0, 788.0, 789.0, 788.0, 788.0, 787.0, 786.0, 786.0, 787.0, 787.0, 786.0, 787.0, 789.0, 789.0, 788.0, 787.0, 788.0, 788.0, 789.0, 788.0, 787.0, 788.0, 788.0, 787.0, 787.0, 787.0, 788.0, 787.0, 788.0, 791.0, 787.0, 787.0, 787.0, 787.0, 789.0, 787.0, 787.0, 787.0, 785.0, 786.0, 788.0, 790.0, 790.0, 789.0, 788.0, 788.0, 788.0, 788.0, 788.0, 788.0, 789.0, 787.0, 788.0, 789.0, 789.0, 789.0, 789.0, 789.0, 789.0, 789.0, 789.0, 794.0, 790.0, 790.0, 789.0, 788.0, 788.0, 788.0, 788.0, 788.0, 788.0, 788.0, 786.0, 790.0, 790.0, 789.0, 789.0, 790.0, 790.0, 790.0, 789.0, 790.0, 790.0, 790.0, 790.0, 790.0, 790.0, 790.0, 790.0, 790.0, 794.0, 792.0, 791.0, 791.0, 790.0, 790.0, 790.0, 790.0, 789.0, 789.0, 789.0, 788.0, 791.0, 793.0, 790.0, 789.0, 789.0, 790.0, 792.0, 792.0, 790.0, 790.0],
      "WindowWidth": [1660.0, 1650.0, 1649.0, 1647.0, 1646.0, 1648.0, 1646.0, 1646.0, 1646.0, 1645.0, 1647.0, 1651.0, 1651.0, 1650.0, 1649.0, 1648.0, 1648.0, 1652.0, 1652.0, 1650.0, 1648.0, 1646.0, 1650.0, 1651.0, 1653.0, 1660.0, 1653.0, 1655.0, 1655.0, 1652.0, 1651.0, 1651.0, 1648.0, 1644.0, 1647.0, 1645.0, 1649.0, 1651.0, 1651.0, 1652.0, 1649.0, 1652.0, 1650.0, 1649.0, 1650.0, 1652.0, 1652.0, 1652.0, 1653.0, 1651.0, 1652.0, 1654.0, 1655.0, 1655.0, 1654.0, 1653.0, 1657.0, 1662.0, 1654.0, 1656.0, 1653.0, 1651.0, 1651.0, 1649.0, 1649.0, 1652.0, 1651.0, 1646.0, 1655.0, 1657.0, 1656.0, 1652.0, 1652.0, 1655.0, 1655.0, 1654.0, 1655.0, 1655.0, 1655.0, 1658.0, 1658.0, 1658.0, 1656.0, 1655.0, 1654.0, 1656.0, 1659.0, 1658.0, 1661.0, 1655.0, 1666.0, 1660.0, 1657.0, 1657.0, 1660.0, 1656.0, 1654.0, 1653.0, 1654.0, 1652.0, 1659.0, 1656.0, 1653.0, 1656.0, 1656.0, 1656.0, 1658.0, 1658.0, 1658.0, 1658.0, 1660.0, 1660.0, 1660.0, 1661.0, 1658.0, 1658.0, 1663.0, 1664.0, 1672.0, 1661.0, 1657.0, 1656.0, 1657.0, 1655.0, 1654.0, 1656.0, 1658.0, 1655.0, 1652.0, 1663.0, 1661.0, 1661.0, 1659.0, 1658.0, 1658.0, 1658.0, 1658.0, 1657.0, 1658.0, 1659.0, 1661.0, 1662.0, 1661.0, 1662.0, 1662.0, 1667.0, 1664.0, 1664.0, 1666.0, 1662.0, 1663.0, 1662.0, 1659.0, 1659.0, 1660.0, 1662.0, 1659.0, 1660.0, 1666.0, 1665.0, 1662.0, 1661.0, 1663.0, 1664.0, 1665.0, 1663.0, 1661.0, 1663.0, 1665.0, 1662.0, 1662.0, 1661.0, 1664.0, 1662.0, 1663.0, 1673.0, 1660.0, 1662.0, 1662.0, 1661.0, 1667.0, 1661.0, 1661.0, 1660.0, 1657.0, 1660.0, 1664.0, 1668.0, 1668.0, 1665.0, 1663.0, 1664.0, 1662.0, 1662.0, 1663.0, 1663.0, 1665.0, 1662.0, 1664.0, 1665.0, 1667.0, 1666.0, 1665.0, 1666.0, 1666.0, 1667.0, 1666.0, 1681.0, 1668.0, 1668.0, 1666.0, 1664.0, 1665.0, 1665.0, 1664.0, 1663.0, 1663.0, 1664.0, 1660.0, 1667.0, 1669.0, 1666.0, 1666.0, 1668.0, 1669.0, 1669.0, 1667.0, 1668.0, 1668.0, 1668.0, 1667.0, 1669.0, 1670.0, 1670.0, 1668.0, 1668.0, 1679.0, 1675.0, 1670.0, 1670.0, 1668.0, 1668.0, 1669.0, 1668.0, 1665.0, 1666.0, 1666.0, 1663.0, 1670.0, 1675.0, 1669.0, 1667.0, 1665.0, 1669.0, 1674.0, 1672.0, 1669.0, 1669.0]
    },
    "slices": {}
  }
}