{
  "aor": 0.0003612605042016807,
  "aqi": 0.012525654243697478,
  "bids_meta": {
    "AcquisitionMatrixPE": 68,
    "AcquisitionNumber": 1,
    "AcquisitionTime": "11:48:10.340000",
    "BandwidthPerPixelPhaseEncode": 31.289,
    "BaseResolution": 68,
    "CogAtlasID": "TODO",
    "CoilString": "C:HEA;HEP",
    "ConversionSoftware": "dcm2niix",
    "ConversionSoftwareVersion": "v1.0.20190902",
    "DerivedVendorReportedEchoSpacing": 0.000470002,
    "DeviceSerialNumber": "35450",
    "DwellTime": 3e-06,
    "EchoTime": 0.023,
    "EffectiveEchoSpacing": 0.000470002,
    "FlipAngle": 76,
    "ImageOrientationPatientDICOM": [
      1,
      0,
      0,
      0,
      0.999743,
      -0.0226873
    ],
    "ImageType": [
      "ORIGINAL",
      "PRIMARY",
      "M",
      "ND",
      "MOSAIC"
    ],
    "ImagingFrequency": 123.219,
    "InPlanePhaseEncodingDirectionDICOM": "COL",
    "InstitutionAddress": "Univeristy_Ave._197_Newark_North_East_US_07102-1814",
    "InstitutionName": "RUBIC",
    "InstitutionalDepartmentName": "Department",
    "MRAcquisitionType": "2D",
    "MagneticFieldStrength": 3,
    "Manufacturer": "Siemens",
    "ManufacturersModelName": "TrioTim",
    "Modality": "MR",
    "PartialFourier": 1,
    "PatientPosition": "HFS",
    "PercentPhaseFOV": 100,
    "PhaseEncodingDirection": "j-",
    "PhaseEncodingSteps": 68,
    "PhaseResolution": 1,
    "PixelBandwidth": 2451,
    "ProcedureStepDescription": "Krekelberg_David",
    "ProtocolName": "ep2d_bold_RestEPI_3",
    "PulseSequenceDetails": "%SiemensSeq%_ep2d_bold",
    "ReceiveCoilName": "HeadMatrix",
    "ReconMatrixPE": 68,
    "RepetitionTime": 2,
    "SAR": 0.17302,
    "ScanOptions": "FS",
    "ScanningSequence": "EP",
    "SequenceName": "_epfid2d1_68",
    "SequenceVariant": "SK",
    "SeriesDescription": "ep2d_bold_RestEPI_3",
    "SeriesNumber": 11,
    "ShimSetting": [
      1927,
      -647,
      -7593,
      724,
      -3,
      3,
      -22,
      32
    ],
    "SliceThickness": 2.5,
    "SliceTiming": [
      1.9525,
      1.8975,
      1.84,
      1.785,
      1.73,
      1.675,
      1.6175,
      1.5625,
      1.5075,
      1.45,
      1.395,
      1.34,
      1.2825,
      1.2275,
      1.1725,
      1.1175,
      1.06,
      1.005,
      0.95,
      0.8925,
      0.8375,
      0.7825,
      0.725,
      0.67,
      0.615,
      0.5575,
      0.5025,
      0.4475,
      0.3925,
      0.335,
      0.28,
      0.225,
      0.1675,
      0.1125,
      0.0575,
      0
    ],
    "SoftwareVersions": "syngo_MR_B19",
    "SpacingBetweenSlices": 3,
    "StationName": "MRC35450",
    "TaskName": "rest",
    "TotalReadoutTime": 0.0314901,
    "TxRefAmp": 334.055,
    "dataset": "<unset>",
    "dcmmeta_affine": [
      [
        -3.0,
        0.0,
        0.0,
        98.61016845703125
      ],
      [
        0.0,
        2.99922776222229,
        -0.06806199997663498,
        -70.66478729248047
      ],
      [
        0.0,
        0.06806199997663498,
        2.99922776222229,
        -45.918975830078125
      ],
      [
        0.0,
        0.0,
        0.0,
        1.0
      ]
    ],
    "dcmmeta_reorient_transform": [
      [
        0.0,
        -1.0,
        0.0,
        67.0
      ],
      [
        1.0,
        0.0,
        0.0,
        0.0
      ],
      [
        0.0,
        0.0,
        1.0,
        0.0
      ],
      [
        0.0,
        0.0,
        0.0,
        1.0
      ]
    ],
    "dcmmeta_shape": [
      68,
      68,
      36,
      240
    ],
    "dcmmeta_slice_dim": 2,
    "dcmmeta_version": 0.6,
    "global": {
      "const": {
        "AcquisitionMatrix": [
          68,
          0,
          0,
          68
        ],
        "AngioFlag": "N",
        "BitsAllocated": 16,
        "BitsStored": 12,
        "Columns": 408,
        "EchoNumbers": 1,
        "EchoTime": 23.0,
        "EchoTrainLength": 1,
        "FlipAngle": 76.0,
        "HighBit": 11,
        "ImageOrientationPatient": [
          1.0,
          0.0,
          0.0,
          0.0,
          0.99974260931238,
          -0.0226873340276
        ],
        "ImagePositionPatient": [
          -608.61016941071,
          -640.15220742896,
          -29.788279431571
        ],
        "ImageType": [
          "ORIGINAL",
          "PRIMARY",
          "M",
          "ND",
          "MOSAIC"
        ],
        "ImagedNucleus": "1H",
        "ImagingFrequency": 123.218521,
        "InPlanePhaseEncodingDirection": "COL",
        "MRAcquisitionType": "2D",
        "MagneticFieldStrength": 3.0,
        "Manufacturer": "SIEMENS",
        "ManufacturerModelName": "TrioTim",
        "Modality": "MR",
        "NumberOfAverages": 1.0,
        "NumberOfPhaseEncodingSteps": 68,
        "PercentPhaseFieldOfView": 100.0,
        "PercentSampling": 100.0,
        "PerformedProcedureStepStartTime": "104611.937000",
        "PhotometricInterpretation": "MONOCHROME2",
        "PixelBandwidth": 2451.0,
        "PixelRepresentation": 0,
        "PixelSpacing": [
          3.0,
          3.0
        ],
        "ProtocolName": "ep2d_bold_RestEPI_3",
        "RepetitionTime": 2000.0,
        "Rows": 408,
        "SAR": 0.17302047549429,
        "SamplesPerPixel": 1,
        "ScanOptions": "FS",
        "ScanningSequence": "EP",
        "SequenceName": "*epfid2d1_68",
        "SequenceVariant": "SK",
        "SeriesDescription": "ep2d_bold_RestEPI_3",
        "SeriesNumber": 11,
        "SeriesTime": "114907.031000",
        "SliceLocation": -44.303959164274,
        "SliceThickness": 2.5,
        "SmallestImagePixelValue": 0,
        "SoftwareVersions": "syngo MR B19",
        "SpacingBetweenSlices": 2.999999969363,
        "SpecificCharacterSet": "ISO_IR 100",
        "StudyID": "1",
        "StudyTime": "104611.828000",
        "TransmitCoilName": "Body",
        "VariableFlipAngleFlag": "N",
        "WindowCenterWidthExplanation": "Algo1",
        "dBdt": 0.0
      },
      "slices": {}
    },
    "modality": "bold",
    "run_id": 3,
    "subject_id": "210",
    "task_id": "rest",
    "time": {
      "samples": {
        "AcquisitionNumber": [
          1,
          2,
          3,
          4,
          5,
          6,
          7,
          8,
          9,
          10,
          11,
          12,
          13,
          14,
          15,
          16,
          17,
          18,
          19,
          20,
          21,
          22,
          23,
          24,
          25,
          26,
          27,
          28,
          29,
          30,
          31,
          32,
          33,
          34,
          35,
          36,
          37,
          38,
          39,
          40,
          41,
          42,
          43,
          44,
          45,
          46,
          47,
          48,
          49,
          50,
          51,
          52,
          53,
          54,
          55,
          56,
          57,
          58,
          59,
          60,
          61,
          62,
          63,
          64,
          65,
          66,
          67,
          68,
          69,
          70,
          71,
          72,
          73,
          74,
          75,
          76,
          77,
          78,
          79,
          80,
          81,
          82,
          83,
          84,
          85,
          86,
          87,
          88,
          89,
          90,
          91,
          92,
          93,
          94,
          95,
          96,
          97,
          98,
          99,
          100,
          101,
          102,
          103,
          104,
          105,
          106,
          107,
          108,
          109,
          110,
          111,
          112,
          113,
          114,
          115,
          116,
          117,
          118,
          119,
          120,
          121,
          122,
          123,
          124,
          125,
          126,
          127,
          128,
          129,
          130,
          131,
          132,
          133,
          134,
          135,
          136,
          137,
          138,
          139,
          140,
          141,
          142,
          143,
          144,
          145,
          146,
          147,
          148,
          149,
          150,
          151,
          152,
          153,
          154,
          155,
          156,
          157,
          158,
          159,
          160,
          161,
          162,
          163,
          164,
          165,
          166,
          167,
          168,
          169,
          170,
          171,
          172,
          173,
          174,
          175,
          176,
          177,
          178,
          179,
          180,
          181,
          182,
          183,
          184,
          185,
          186,
          187,
          188,
          189,
          190,
          191,
          192,
          193,
          194,
          195,
          196,
          197,
          198,
          199,
          200,
          201,
          202,
          203,
          204,
          205,
          206,
          207,
          208,
          209,
          210,
          211,
          212,
          213,
          214,
          215,
          216,
          217,
          218,
          219,
          220,
          221,
          222,
          223,
          224,
          225,
          226,
          227,
          228,
          229,
          230,
          231,
          232,
          233,
          234,
          235,
          236,
          237,
          238,
          239,
          240
        ],
        "AcquisitionTime": [
          "114810.340000",
          "114812.347500",
          "114814.357500",
          "114816.365000",
          "114818.372500",
          "114820.380000",
          "114822.387500",
          "114824.397500",
          "114826.405000",
          "114828.412500",
          "114830.420000",
          "114832.427500",
          "114834.437500",
          "114836.445000",
          "114838.452500",
          "114840.460000",
          "114842.470000",
          "114844.477500",
          "114846.485000",
          "114848.492500",
          "114850.500000",
          "114852.510000",
          "114854.517500",
          "114856.525000",
          "114858.532500",
          "114900.540000",
          "114902.550000",
          "114904.557500",
          "114906.565000",
          "114908.572500",
          "114910.580000",
          "114912.590000",
          "114914.597500",
          "114916.605000",
          "114918.612500",
          "114920.622500",
          "114922.630000",
          "114924.637500",
          "114926.645000",
          "114928.652500",
          "114930.662500",
          "114932.670000",
          "114934.677500",
          "114936.685000",
          "114938.692500",
          "114940.702500",
          "114942.710000",
          "114944.717500",
          "114946.725000",
          "114948.735000",
          "114950.742500",
          "114952.750000",
          "114954.757500",
          "114956.765000",
          "114958.775000",
          "115000.782500",
          "115002.790000",
          "115004.797500",
          "115006.805000",
          "115008.815000",
          "115010.822500",
          "115012.830000",
          "115014.837500",
          "115016.847500",
          "115018.855000",
          "115020.862500",
          "115022.870000",
          "115024.877500",
          "115026.887500",
          "115028.895000",
          "115030.902500",
          "115032.910000",
          "115034.917500",
          "115036.927500",
          "115038.935000",
          "115040.942500",
          "115042.950000",
          "115044.957500",
          "115046.967500",
          "115048.975000",
          "115050.982500",
          "115052.990000",
          "115055.000000",
          "115057.007500",
          "115059.015000",
          "115101.022500",
          "115103.030000",
          "115105.040000",
          "115107.047500",
          "115109.055000",
          "115111.062500",
          "115113.070000",
          "115115.080000",
          "115117.087500",
          "115119.095000",
          "115121.102500",
          "115123.112500",
          "115125.120000",
          "115127.127500",
          "115129.135000",
          "115131.142500",
          "115133.152500",
          "115135.160000",
          "115137.167500",
          "115139.175000",
          "115141.182500",
          "115143.192500",
          "115145.200000",
          "115147.207500",
          "115149.215000",
          "115151.225000",
          "115153.232500",
          "115155.240000",
          "115157.247500",
          "115159.255000",
          "115201.265000",
          "115203.272500",
          "115205.280000",
          "115207.287500",
          "115209.295000",
          "115211.305000",
          "115213.312500",
          "115215.320000",
          "115217.327500",
          "115219.335000",
          "115221.345000",
          "115223.352500",
          "115225.360000",
          "115227.367500",
          "115229.377500",
          "115231.385000",
          "115233.392500",
          "115235.400000",
          "115237.407500",
          "115239.417500",
          "115241.425000",
          "115243.432500",
          "115245.440000",
          "115247.447500",
          "115249.457500",
          "115251.465000",
          "115253.472500",
          "115255.480000",
          "115257.490000",
          "115259.497500",
          "115301.505000",
          "115303.512500",
          "115305.520000",
          "115307.530000",
          "115309.537500",
          "115311.545000",
          "115313.552500",
          "115315.560000",
          "115317.570000",
          "115319.577500",
          "115321.585000",
          "115323.592500",
          "115325.602500",
          "115327.610000",
          "115329.617500",
          "115331.625000",
          "115333.632500",
          "115335.642500",
          "115337.650000",
          "115339.657500",
          "115341.665000",
          "115343.672500",
          "115345.682500",
          "115347.690000",
          "115349.697500",
          "115351.705000",
          "115353.715000",
          "115355.722500",
          "115357.730000",
          "115359.737500",
          "115401.745000",
          "115403.755000",
          "115405.762500",
          "115407.770000",
          "115409.777500",
          "115411.785000",
          "115413.795000",
          "115415.802500",
          "115417.810000",
          "115419.817500",
          "115421.825000",
          "115423.835000",
          "115425.842500",
          "115427.850000",
          "115429.857500",
          "115431.867500",
          "115433.875000",
          "115435.882500",
          "115437.890000",
          "115439.897500",
          "115441.907500",
          "115443.915000",
          "115445.922500",
          "115447.930000",
          "115449.937500",
          "115451.947500",
          "115453.955000",
          "115455.962500",
          "115457.970000",
          "115459.980000",
          "115501.987500",
          "115503.995000",
          "115506.002500",
          "115508.010000",
          "115510.020000",
          "115512.027500",
          "115514.035000",
          "115516.042500",
          "115518.050000",
          "115520.060000",
          "115522.067500",
          "115524.075000",
          "115526.082500",
          "115528.092500",
          "115530.100000",
          "115532.107500",
          "115534.115000",
          "115536.122500",
          "115538.132500",
          "115540.140000",
          "115542.147500",
          "115544.155000",
          "115546.162500",
          "115548.172500",
          "115550.180000",
          "115552.187500",
          "115554.195000",
          "115556.202500",
          "115558.212500",
          "115600.220000",
          "115602.227500",
          "115604.235000",
          "115606.245000",
          "115608.252500",
          "115610.260000"
        ],
        "ContentTime": [
          "114907.031000",
          "114907.031000",
          "114907.031000",
          "114907.046000",
          "114907.046000",
          "114907.046000",
          "114907.046000",
          "114907.046000",
          "114907.046000",
          "114907.046000",
          "114907.062000",
          "114907.062000",
          "114907.062000",
          "114907.062000",
          "114907.062000",
          "114907.062000",
          "114907.062000",
          "114907.078000",
          "114907.078000",
          "114907.078000",
          "114907.078000",
          "114907.078000",
          "114907.078000",
          "114907.078000",
          "114907.078000",
          "114907.093000",
          "114907.093000",
          "114907.093000",
          "114947.031000",
          "114947.031000",
          "114947.031000",
          "114947.031000",
          "114947.031000",
          "114947.046000",
          "114947.046000",
          "114947.046000",
          "114947.046000",
          "114947.046000",
          "114947.046000",
          "114947.046000",
          "114947.046000",
          "114947.062000",
          "114947.062000",
          "114947.062000",
          "114947.062000",
          "114947.062000",
          "114947.062000",
          "114947.062000",
          "115027.031000",
          "115027.031000",
          "115027.031000",
          "115027.031000",
          "115027.031000",
          "115027.046000",
          "115027.046000",
          "115027.046000",
          "115027.046000",
          "115027.046000",
          "115027.046000",
          "115027.046000",
          "115027.062000",
          "115027.062000",
          "115027.062000",
          "115027.062000",
          "115027.062000",
          "115027.062000",
          "115027.062000",
          "115027.078000",
          "115107.031000",
          "115107.031000",
          "115107.031000",
          "115107.031000",
          "115107.031000",
          "115107.046000",
          "115107.046000",
          "115107.046000",
          "115107.046000",
          "115107.046000",
          "115107.062000",
          "115107.062000",
          "115107.062000",
          "115107.062000",
          "115107.062000",
          "115107.062000",
          "115107.078000",
          "115107.078000",
          "115107.078000",
          "115107.078000",
          "115147.031000",
          "115147.031000",
          "115147.031000",
          "115147.031000",
          "115147.031000",
          "115147.046000",
          "115147.046000",
          "115147.046000",
          "115147.046000",
          "115147.046000",
          "115147.046000",
          "115147.046000",
          "115147.046000",
          "115147.062000",
          "115147.062000",
          "115147.062000",
          "115147.062000",
          "115147.062000",
          "115147.062000",
          "115147.062000",
          "115227.031000",
          "115227.031000",
          "115227.031000",
          "115227.031000",
          "115227.031000",
          "115227.046000",
          "115227.046000",
          "115227.046000",
          "115227.046000",
          "115227.046000",
          "115227.046000",
          "115227.046000",
          "115227.046000",
          "115227.062000",
          "115227.062000",
          "115227.062000",
          "115227.062000",
          "115227.062000",
          "115227.062000",
          "115227.062000",
          "115307.031000",
          "115307.031000",
          "115307.031000",
          "115307.031000",
          "115307.031000",
          "115307.046000",
          "115307.046000",
          "115307.046000",
          "115307.062000",
          "115307.062000",
          "115307.062000",
          "115307.062000",
          "115307.062000",
          "115307.062000",
          "115307.062000",
          "115307.078000",
          "115307.078000",
          "115307.078000",
          "115307.078000",
          "115307.078000",
          "115347.031000",
          "115347.031000",
          "115347.031000",
          "115347.031000",
          "115347.031000",
          "115347.046000",
          "115347.046000",
          "115347.046000",
          "115347.046000",
          "115347.046000",
          "115347.046000",
          "115347.046000",
          "115347.062000",
          "115347.062000",
          "115347.062000",
          "115347.062000",
          "115347.062000",
          "115347.062000",
          "115347.062000",
          "115347.078000",
          "115427.031000",
          "115427.031000",
          "115427.031000",
          "115427.031000",
          "115427.031000",
          "115427.046000",
          "115427.046000",
          "115427.046000",
          "115427.046000",
          "115427.046000",
          "115427.046000",
          "115427.046000",
          "115427.046000",
          "115427.062000",
          "115427.062000",
          "115427.062000",
          "115427.062000",
          "115427.062000",
          "115427.062000",
          "115427.062000",
          "115507.031000",
          "115507.031000",
          "115507.031000",
          "115507.031000",
          "115507.031000",
          "115507.046000",
          "115507.046000",
          "115507.046000",
          "115507.046000",
          "115507.046000",
          "115507.046000",
          "115507.046000",
          "115507.062000",
          "115507.062000",
          "115507.062000",
          "115507.062000",
          "115507.062000",
          "115507.062000",
          "115507.062000",
          "115507.062000",
          "115547.031000",
          "115547.031000",
          "115547.031000",
          "115547.031000",
          "115547.031000",
          "115547.046000",
          "115547.046000",
          "115547.046000",
          "115547.046000",
          "115547.046000",
          "115547.046000",
          "115547.046000",
          "115547.046000",
          "115547.062000",
          "115547.062000",
          "115547.062000",
          "115547.062000",
          "115547.062000",
          "115547.062000",
          "115547.062000",
          "115609.468000",
          "115609.468000",
          "115609.468000",
          "115609.468000",
          "115609.468000",
          "115609.468000",
          "115609.468000",
          "115609.484000",
          "115609.484000",
          "115609.484000",
          "115609.484000",
          "115609.484000"
        ],
        "InstanceCreationTime": [
          "114907.031000",
          "114907.031000",
          "114907.031000",
          "114907.046000",
          "114907.046000",
          "114907.046000",
          "114907.046000",
          "114907.046000",
          "114907.046000",
          "114907.046000",
          "114907.062000",
          "114907.062000",
          "114907.062000",
          "114907.062000",
          "114907.062000",
          "114907.062000",
          "114907.062000",
          "114907.078000",
          "114907.078000",
          "114907.078000",
          "114907.078000",
          "114907.078000",
          "114907.078000",
          "114907.078000",
          "114907.078000",
          "114907.093000",
          "114907.093000",
          "114907.093000",
          "114947.031000",
          "114947.031000",
          "114947.031000",
          "114947.031000",
          "114947.031000",
          "114947.046000",
          "114947.046000",
          "114947.046000",
          "114947.046000",
          "114947.046000",
          "114947.046000",
          "114947.046000",
          "114947.046000",
          "114947.062000",
          "114947.062000",
          "114947.062000",
          "114947.062000",
          "114947.062000",
          "114947.062000",
          "114947.062000",
          "115027.031000",
          "115027.031000",
          "115027.031000",
          "115027.031000",
          "115027.031000",
          "115027.046000",
          "115027.046000",
          "115027.046000",
          "115027.046000",
          "115027.046000",
          "115027.046000",
          "115027.046000",
          "115027.062000",
          "115027.062000",
          "115027.062000",
          "115027.062000",
          "115027.062000",
          "115027.062000",
          "115027.062000",
          "115027.078000",
          "115107.031000",
          "115107.031000",
          "115107.031000",
          "115107.031000",
          "115107.031000",
          "115107.046000",
          "115107.046000",
          "115107.046000",
          "115107.046000",
          "115107.046000",
          "115107.062000",
          "115107.062000",
          "115107.062000",
          "115107.062000",
          "115107.062000",
          "115107.062000",
          "115107.078000",
          "115107.078000",
          "115107.078000",
          "115107.078000",
          "115147.031000",
          "115147.031000",
          "115147.031000",
          "115147.031000",
          "115147.031000",
          "115147.046000",
          "115147.046000",
          "115147.046000",
          "115147.046000",
          "115147.046000",
          "115147.046000",
          "115147.046000",
          "115147.046000",
          "115147.062000",
          "115147.062000",
          "115147.062000",
          "115147.062000",
          "115147.062000",
          "115147.062000",
          "115147.062000",
          "115227.031000",
          "115227.031000",
          "115227.031000",
          "115227.031000",
          "115227.031000",
          "115227.046000",
          "115227.046000",
          "115227.046000",
          "115227.046000",
          "115227.046000",
          "115227.046000",
          "115227.046000",
          "115227.046000",
          "115227.062000",
          "115227.062000",
          "115227.062000",
          "115227.062000",
          "115227.062000",
          "115227.062000",
          "115227.062000",
          "115307.031000",
          "115307.031000",
          "115307.031000",
          "115307.031000",
          "115307.031000",
          "115307.046000",
          "115307.046000",
          "115307.046000",
          "115307.062000",
          "115307.062000",
          "115307.062000",
          "115307.062000",
          "115307.062000",
          "115307.062000",
          "115307.062000",
          "115307.078000",
          "115307.078000",
          "115307.078000",
          "115307.078000",
          "115307.078000",
          "115347.031000",
          "115347.031000",
          "115347.031000",
          "115347.031000",
          "115347.031000",
          "115347.046000",
          "115347.046000",
          "115347.046000",
          "115347.046000",
          "115347.046000",
          "115347.046000",
          "115347.046000",
          "115347.062000",
          "115347.062000",
          "115347.062000",
          "115347.062000",
          "115347.062000",
          "115347.062000",
          "115347.062000",
          "115347.078000",
          "115427.031000",
          "115427.031000",
          "115427.031000",
          "115427.031000",
          "115427.031000",
          "115427.046000",
          "115427.046000",
          "115427.046000",
          "115427.046000",
          "115427.046000",
          "115427.046000",
          "115427.046000",
          "115427.046000",
          "115427.062000",
          "115427.062000",
          "115427.062000",
          "115427.062000",
          "115427.062000",
          "115427.062000",
          "115427.062000",
          "115507.031000",
          "115507.031000",
          "115507.031000",
          "115507.031000",
          "115507.031000",
          "115507.046000",
          "115507.046000",
          "115507.046000",
          "115507.046000",
          "115507.046000",
          "115507.046000",
          "115507.046000",
          "115507.062000",
          "115507.062000",
          "115507.062000",
          "115507.062000",
          "115507.062000",
          "115507.062000",
          "115507.062000",
          "115507.062000",
          "115547.031000",
          "115547.031000",
          "115547.031000",
          "115547.031000",
          "115547.031000",
          "115547.046000",
          "115547.046000",
          "115547.046000",
          "115547.046000",
          "115547.046000",
          "115547.046000",
          "115547.046000",
          "115547.046000",
          "115547.062000",
          "115547.062000",
          "115547.062000",
          "115547.062000",
          "115547.062000",
          "115547.062000",
          "115547.062000",
          "115609.468000",
          "115609.468000",
          "115609.468000",
          "115609.468000",
          "115609.468000",
          "115609.468000",
          "115609.468000",
          "115609.484000",
          "115609.484000",
          "115609.484000",
          "115609.484000",
          "115609.484000"
        ],
        "InstanceNumber": [
          1,
          2,
          3,
          4,
          5,
          6,
          7,
          8,
          9,
          10,
          11,
          12,
          13,
          14,
          15,
          16,
          17,
          18,
          19,
          20,
          21,
          22,
          23,
          24,
          25,
          26,
          27,
          28,
          29,
          30,
          31,
          32,
          33,
          34,
          35,
          36,
          37,
          38,
          39,
          40,
          41,
          42,
          43,
          44,
          45,
          46,
          47,
          48,
          49,
          50,
          51,
          52,
          53,
          54,
          55,
          56,
          57,
          58,
