{
  "aor": 0.0009037500000000001,
  "aqi": 0.018999794291666667,
  "bids_meta": {
    "AcquisitionMatrixPE": 68,
    "AcquisitionNumber": 1,
    "AcquisitionTime": "11:38:15.577500",
    "BandwidthPerPixelPhaseEncode": 31.289,
    "BaseResolution": 68,
    "CogAtlasID": "TODO",
    "CoilString": "C:HEA;HEP",
    "ConversionSoftware": "dcm2niix",
    "ConversionSoftwareVersion": "v1.0.20190902",
    "DerivedVendorReportedEchoSpacing": 0.000470002,
    "DeviceSerialNumber": "35450",
    "DwellTime": 3e-06,
    "EchoTime": 0.023,
    "EffectiveEchoSpacing": 0.000470002,
    "FlipAngle": 76,
    "ImageOrientationPatientDICOM": [
      1,
      0,
      0,
      0,
      0.999743,
      -0.0226873
    ],
    "ImageType": [
      "ORIGINAL",
      "PRIMARY",
      "M",
      "ND",
      "MOSAIC"
    ],
    "ImagingFrequency": 123.218,
    "InPlanePhaseEncodingDirectionDICOM": "COL",
    "InstitutionAddress": "Univeristy_Ave._197_Newark_North_East_US_07102-1814",
    "InstitutionName": "RUBIC",
    "InstitutionalDepartmentName": "Department",
    "MRAcquisitionType": "2D",
    "MagneticFieldStrength": 3,
    "Manufacturer": "Siemens",
    "ManufacturersModelName": "TrioTim",
    "Modality": "MR",
    "PartialFourier": 1,
    "PatientPosition": "HFS",
    "PercentPhaseFOV": 100,
    "PhaseEncodingDirection": "j-",
    "PhaseEncodingSteps": 68,
    "PhaseResolution": 1,
    "PixelBandwidth": 2451,
    "ProcedureStepDescription": "Krekelberg_David",
    "ProtocolName": "ep2d_bold_RestEPI_2",
    "PulseSequenceDetails": "%SiemensSeq%_ep2d_bold",
    "ReceiveCoilName": "HeadMatrix",
    "ReconMatrixPE": 68,
    "RepetitionTime": 2,
    "SAR": 0.17302,
    "ScanOptions": "FS",
    "ScanningSequence": "EP",
    "SequenceName": "_epfid2d1_68",
    "SequenceVariant": "SK",
    "SeriesDescription": "ep2d_bold_RestEPI_2",
    "SeriesNumber": 10,
    "ShimSetting": [
      1927,
      -647,
      -7593,
      724,
      -3,
      3,
      -22,
      32
    ],
    "SliceThickness": 2.5,
    "SliceTiming": [
      1.9525,
      1.895,
      1.84,
      1.785,
      1.7275,
      1.6725,
      1.6175,
      1.56,
      1.505,
      1.45,
      1.395,
      1.3375,
      1.2825,
      1.2275,
      1.17,
      1.115,
      1.06,
      1.0025,
      0.9475,
      0.8925,
      0.835,
      0.78,
      0.725,
      0.67,
      0.6125,
      0.5575,
      0.5025,
      0.445,
      0.39,
      0.335,
      0.2775,
      0.2225,
      0.1675,
      0.1125,
      0.055,
      0
    ],
    "SoftwareVersions": "syngo_MR_B19",
    "SpacingBetweenSlices": 3,
    "StationName": "MRC35450",
    "TaskName": "rest",
    "TotalReadoutTime": 0.0314901,
    "TxRefAmp": 334.055,
    "dataset": "<unset>",
    "dcmmeta_affine": [
      [
        -3.0,
        0.0,
        0.0,
        98.61016845703125
      ],
      [
        0.0,
        2.99922776222229,
        -0.06806199997663498,
        -70.66478729248047
      ],
      [
        0.0,
        0.06806199997663498,
        2.99922776222229,
        -45.918975830078125
      ],
      [
        0.0,
        0.0,
        0.0,
        1.0
      ]
    ],
    "dcmmeta_reorient_transform": [
      [
        0.0,
        -1.0,
        0.0,
        67.0
      ],
      [
        1.0,
        0.0,
        0.0,
        0.0
      ],
      [
        0.0,
        0.0,
        1.0,
        0.0
      ],
      [
        0.0,
        0.0,
        0.0,
        1.0
      ]
    ],
    "dcmmeta_shape": [
      68,
      68,
      36,
      240
    ],
    "dcmmeta_slice_dim": 2,
    "dcmmeta_version": 0.6,
    "global": {
      "const": {
        "AcquisitionMatrix": [
          68,
          0,
          0,
          68
        ],
        "AngioFlag": "N",
        "BitsAllocated": 16,
        "BitsStored": 12,
        "Columns": 408,
        "EchoNumbers": 1,
        "EchoTime": 23.0,
        "EchoTrainLength": 1,
        "FlipAngle": 76.0,
        "HighBit": 11,
        "ImageOrientationPatient": [
          1.0,
          0.0,
          0.0,
          0.0,
          0.99974260931238,
          -0.0226873340276
        ],
        "ImagePositionPatient": [
          -608.61016941071,
          -640.15220742896,
          -29.788279431571
        ],
        "ImageType": [
          "ORIGINAL",
          "PRIMARY",
          "M",
          "ND",
          "MOSAIC"
        ],
        "ImagedNucleus": "1H",
        "ImagingFrequency": 123.218502,
        "InPlanePhaseEncodingDirection": "COL",
        "MRAcquisitionType": "2D",
        "MagneticFieldStrength": 3.0,
        "Manufacturer": "SIEMENS",
        "ManufacturerModelName": "TrioTim",
        "Modality": "MR",
        "NumberOfAverages": 1.0,
        "NumberOfPhaseEncodingSteps": 68,
        "PercentPhaseFieldOfView": 100.0,
        "PercentSampling": 100.0,
        "PerformedProcedureStepStartTime": "104611.937000",
        "PhotometricInterpretation": "MONOCHROME2",
        "PixelBandwidth": 2451.0,
        "PixelRepresentation": 0,
        "PixelSpacing": [
          3.0,
          3.0
        ],
        "ProtocolName": "ep2d_bold_RestEPI_2",
        "RepetitionTime": 2000.0,
        "Rows": 408,
        "SAR": 0.17302047549429,
        "SamplesPerPixel": 1,
        "ScanOptions": "FS",
        "ScanningSequence": "EP",
        "SequenceName": "*epfid2d1_68",
        "SequenceVariant": "SK",
        "SeriesDescription": "ep2d_bold_RestEPI_2",
        "SeriesNumber": 10,
        "SeriesTime": "113854.500000",
        "SliceLocation": -44.303959164274,
        "SliceThickness": 2.5,
        "SmallestImagePixelValue": 0,
        "SoftwareVersions": "syngo MR B19",
        "SpacingBetweenSlices": 2.999999969363,
        "SpecificCharacterSet": "ISO_IR 100",
        "StudyID": "1",
        "StudyTime": "104611.828000",
        "TransmitCoilName": "Body",
        "VariableFlipAngleFlag": "N",
        "WindowCenterWidthExplanation": "Algo1",
        "dBdt": 0.0
      },
      "slices": {}
    },
    "modality": "bold",
    "run_id": 2,
    "subject_id": "210",
    "task_id": "rest",
    "time": {
      "samples": {
        "AcquisitionNumber": [
          1,
          2,
          3,
          4,
          5,
          6,
          7,
          8,
          9,
          10,
          11,
          12,
          13,
          14,
          15,
          16,
          17,
          18,
          19,
          20,
          21,
          22,
          23,
          24,
          25,
          26,
          27,
          28,
          29,
          30,
          31,
          32,
          33,
          34,
          35,
          36,
          37,
          38,
          39,
          40,
          41,
          42,
          43,
          44,
          45,
          46,
          47,
          48,
          49,
          50,
          51,
          52,
          53,
          54,
          55,
          56,
          57,
          58,
          59,
          60,
          61,
          62,
          63,
          64,
          65,
          66,
          67,
          68,
          69,
          70,
          71,
          72,
          73,
          74,
          75,
          76,
          77,
          78,
          79,
          80,
          81,
          82,
          83,
          84,
          85,
          86,
          87,
          88,
          89,
          90,
          91,
          92,
          93,
          94,
          95,
          96,
          97,
          98,
          99,
          100,
          101,
          102,
          103,
          104,
          105,
          106,
          107,
          108,
          109,
          110,
          111,
          112,
          113,
          114,
          115,
          116,
          117,
          118,
          119,
          120,
          121,
          122,
          123,
          124,
          125,
          126,
          127,
          128,
          129,
          130,
          131,
          132,
          133,
          134,
          135,
          136,
          137,
          138,
          139,
          140,
          141,
          142,
          143,
          144,
          145,
          146,
          147,
          148,
          149,
          150,
          151,
          152,
          153,
          154,
          155,
          156,
          157,
          158,
          159,
          160,
          161,
          162,
          163,
          164,
          165,
          166,
          167,
          168,
          169,
          170,
          171,
          172,
          173,
          174,
          175,
          176,
          177,
          178,
          179,
          180,
          181,
          182,
          183,
          184,
          185,
          186,
          187,
          188,
          189,
          190,
          191,
          192,
          193,
          194,
          195,
          196,
          197,
          198,
          199,
          200,
          201,
          202,
          203,
          204,
          205,
          206,
          207,
          208,
          209,
          210,
          211,
          212,
          213,
          214,
          215,
          216,
          217,
          218,
          219,
          220,
          221,
          222,
          223,
          224,
          225,
          226,
          227,
          228,
          229,
          230,
          231,
          232,
          233,
          234,
          235,
          236,
          237,
          238,
          239,
          240
        ],
        "AcquisitionTime": [
          "113815.577500",
          "113817.585000",
          "113819.592500",
          "113821.600000",
          "113823.607500",
          "113825.617500",
          "113827.625000",
          "113829.632500",
          "113831.640000",
          "113833.650000",
          "113835.657500",
          "113837.665000",
          "113839.672500",
          "113841.680000",
          "113843.690000",
          "113845.697500",
          "113847.705000",
          "113849.712500",
          "113851.720000",
          "113853.730000",
          "113855.737500",
          "113857.745000",
          "113859.752500",
          "113901.760000",
          "113903.770000",
          "113905.777500",
          "113907.785000",
          "113909.792500",
          "113911.802500",
          "113913.810000",
          "113915.817500",
          "113917.825000",
          "113919.832500",
          "113921.842500",
          "113923.850000",
          "113925.857500",
          "113927.865000",
          "113929.872500",
          "113931.882500",
          "113933.890000",
          "113935.897500",
          "113937.905000",
          "113939.915000",
          "113941.922500",
          "113943.930000",
          "113945.937500",
          "113947.945000",
          "113949.955000",
          "113951.962500",
          "113953.970000",
          "113955.977500",
          "113957.985000",
          "113959.995000",
          "114002.002500",
          "114004.010000",
          "114006.017500",
          "114008.027500",
          "114010.035000",
          "114012.042500",
          "114014.050000",
          "114016.057500",
          "114018.067500",
          "114020.075000",
          "114022.082500",
          "114024.090000",
          "114026.097500",
          "114028.107500",
          "114030.115000",
          "114032.122500",
          "114034.130000",
          "114036.137500",
          "114038.147500",
          "114040.155000",
          "114042.162500",
          "114044.170000",
          "114046.180000",
          "114048.187500",
          "114050.195000",
          "114052.202500",
          "114054.210000",
          "114056.220000",
          "114058.227500",
          "114100.235000",
          "114102.242500",
          "114104.250000",
          "114106.260000",
          "114108.267500",
          "114110.275000",
          "114112.282500",
          "114114.292500",
          "114116.300000",
          "114118.307500",
          "114120.315000",
          "114122.322500",
          "114124.332500",
          "114126.340000",
          "114128.347500",
          "114130.355000",
          "114132.362500",
          "114134.372500",
          "114136.380000",
          "114138.387500",
          "114140.395000",
          "114142.405000",
          "114144.412500",
          "114146.420000",
          "114148.427500",
          "114150.435000",
          "114152.445000",
          "114154.452500",
          "114156.460000",
          "114158.467500",
          "114200.475000",
          "114202.485000",
          "114204.492500",
          "114206.500000",
          "114208.507500",
          "114210.515000",
          "114212.525000",
          "114214.532500",
          "114216.540000",
          "114218.547500",
          "114220.557500",
          "114222.565000",
          "114224.572500",
          "114226.580000",
          "114228.587500",
          "114230.597500",
          "114232.605000",
          "114234.612500",
          "114236.620000",
          "114238.627500",
          "114240.637500",
          "114242.645000",
          "114244.652500",
          "114246.660000",
          "114248.670000",
          "114250.677500",
          "114252.685000",
          "114254.692500",
          "114256.700000",
          "114258.710000",
          "114300.717500",
          "114302.725000",
          "114304.732500",
          "114306.740000",
          "114308.750000",
          "114310.757500",
          "114312.765000",
          "114314.772500",
          "114316.782500",
          "114318.790000",
          "114320.797500",
          "114322.805000",
          "114324.812500",
          "114326.822500",
          "114328.830000",
          "114330.837500",
          "114332.845000",
          "114334.852500",
          "114336.862500",
          "114338.870000",
          "114340.877500",
          "114342.885000",
          "114344.892500",
          "114346.902500",
          "114348.910000",
          "114350.917500",
          "114352.925000",
          "114354.935000",
          "114356.942500",
          "114358.950000",
          "114400.957500",
          "114402.965000",
          "114404.975000",
          "114406.982500",
          "114408.990000",
          "114410.997500",
          "114413.005000",
          "114415.015000",
          "114417.022500",
          "114419.030000",
          "114421.037500",
          "114423.047500",
          "114425.055000",
          "114427.062500",
          "114429.070000",
          "114431.077500",
          "114433.087500",
          "114435.095000",
          "114437.102500",
          "114439.110000",
          "114441.117500",
          "114443.127500",
          "114445.135000",
          "114447.142500",
          "114449.150000",
          "114451.160000",
          "114453.167500",
          "114455.175000",
          "114457.182500",
          "114459.190000",
          "114501.200000",
          "114503.207500",
          "114505.215000",
          "114507.222500",
          "114509.230000",
          "114511.240000",
          "114513.247500",
          "114515.255000",
          "114517.262500",
          "114519.272500",
          "114521.280000",
          "114523.287500",
          "114525.295000",
          "114527.302500",
          "114529.312500",
          "114531.320000",
          "114533.327500",
          "114535.335000",
          "114537.342500",
          "114539.352500",
          "114541.360000",
          "114543.367500",
          "114545.375000",
          "114547.382500",
          "114549.392500",
          "114551.400000",
          "114553.407500",
          "114555.415000",
          "114557.425000",
          "114559.432500",
          "114601.440000",
          "114603.447500",
          "114605.455000",
          "114607.465000",
          "114609.472500",
          "114611.480000",
          "114613.487500",
          "114615.495000"
        ],
        "ContentTime": [
          "113854.500000",
          "113854.500000",
          "113854.500000",
          "113854.515000",
          "113854.515000",
          "113854.515000",
          "113854.515000",
          "113854.515000",
          "113854.515000",
          "113854.515000",
          "113854.531000",
          "113854.531000",
          "113854.531000",
          "113854.531000",
          "113854.531000",
          "113854.531000",
          "113854.531000",
          "113854.531000",
          "113854.546000",
          "113854.546000",
          "113934.500000",
          "113934.500000",
          "113934.500000",
          "113934.500000",
          "113934.500000",
          "113934.515000",
          "113934.515000",
          "113934.515000",
          "113934.515000",
          "113934.515000",
          "113934.515000",
          "113934.515000",
          "113934.515000",
          "113934.531000",
          "113934.531000",
          "113934.531000",
          "113934.531000",
          "113934.531000",
          "113934.531000",
          "113934.531000",
          "114014.500000",
          "114014.500000",
          "114014.500000",
          "114014.500000",
          "114014.500000",
          "114014.515000",
          "114014.515000",
          "114014.515000",
          "114014.515000",
          "114014.515000",
          "114014.515000",
          "114014.515000",
          "114014.515000",
          "114014.531000",
          "114014.531000",
          "114014.531000",
          "114014.531000",
          "114014.531000",
          "114014.531000",
          "114014.531000",
          "114054.500000",
          "114054.500000",
          "114054.500000",
          "114054.500000",
          "114054.500000",
          "114054.500000",
          "114054.515000",
          "114054.515000",
          "114054.515000",
          "114054.515000",
          "114054.515000",
          "114054.515000",
          "114054.515000",
          "114054.531000",
          "114054.531000",
          "114054.531000",
          "114054.531000",
          "114054.531000",
          "114054.531000",
          "114054.531000",
          "114134.500000",
          "114134.500000",
          "114134.500000",
          "114134.500000",
          "114134.500000",
          "114134.515000",
          "114134.515000",
          "114134.515000",
          "114134.515000",
          "114134.515000",
          "114134.515000",
          "114134.515000",
          "114134.515000",
          "114134.531000",
          "114134.531000",
          "114134.531000",
          "114134.531000",
          "114134.531000",
          "114134.531000",
          "114134.546000",
          "114214.500000",
          "114214.500000",
          "114214.500000",
          "114214.500000",
          "114214.500000",
          "114214.500000",
          "114214.515000",
          "114214.515000",
          "114214.515000",
          "114214.515000",
          "114214.515000",
          "114214.515000",
          "114214.515000",
          "114214.531000",
          "114214.531000",
          "114214.531000",
          "114214.531000",
          "114214.531000",
          "114214.531000",
          "114214.531000",
          "114254.500000",
          "114254.500000",
          "114254.500000",
          "114254.500000",
          "114254.500000",
          "114254.515000",
          "114254.515000",
          "114254.515000",
          "114254.515000",
          "114254.515000",
          "114254.515000",
          "114254.515000",
          "114254.515000",
          "114254.531000",
          "114254.531000",
          "114254.531000",
          "114254.531000",
          "114254.531000",
          "114254.531000",
          "114254.531000",
          "114314.500000",
          "114314.500000",
          "114314.500000",
          "114314.500000",
          "114314.500000",
          "114314.515000",
          "114314.515000",
          "114314.515000",
          "114314.515000",
          "114314.515000",
          "114354.500000",
          "114354.500000",
          "114354.500000",
          "114354.500000",
          "114354.500000",
          "114354.515000",
          "114354.515000",
          "114354.515000",
          "114354.515000",
          "114354.515000",
          "114354.515000",
          "114354.515000",
          "114354.515000",
          "114354.531000",
          "114354.531000",
          "114354.531000",
          "114354.531000",
          "114354.531000",
          "114354.531000",
          "114354.531000",
          "114434.500000",
          "114434.500000",
          "114434.500000",
          "114434.500000",
          "114434.500000",
          "114434.515000",
          "114434.515000",
          "114434.515000",
          "114434.515000",
          "114434.515000",
          "114434.515000",
          "114434.515000",
          "114434.515000",
          "114434.531000",
          "114434.531000",
          "114434.531000",
          "114434.531000",
          "114434.531000",
          "114434.531000",
          "114434.531000",
          "114514.500000",
          "114514.500000",
          "114514.500000",
          "114514.500000",
          "114514.500000",
          "114514.515000",
          "114514.515000",
          "114514.515000",
          "114514.515000",
          "114514.515000",
          "114514.515000",
          "114514.515000",
          "114514.515000",
          "114514.531000",
          "114514.531000",
          "114514.531000",
          "114514.531000",
          "114514.531000",
          "114514.531000",
          "114514.531000",
          "114554.500000",
          "114554.500000",
          "114554.500000",
          "114554.500000",
          "114554.500000",
          "114554.515000",
          "114554.515000",
          "114554.515000",
          "114554.515000",
          "114554.515000",
          "114554.515000",
          "114554.515000",
          "114554.515000",
          "114554.531000",
          "114554.531000",
          "114554.531000",
          "114554.531000",
          "114554.531000",
          "114554.531000",
          "114554.531000",
          "114614.234000",
          "114614.234000",
          "114614.234000",
          "114614.234000",
          "114614.234000",
          "114614.234000",
          "114614.234000",
          "114614.234000",
          "114614.250000",
          "114614.250000"
        ],
        "InstanceCreationTime": [
          "113854.500000",
          "113854.500000",
          "113854.500000",
          "113854.515000",
          "113854.515000",
          "113854.515000",
          "113854.515000",
          "113854.515000",
          "113854.515000",
          "113854.515000",
          "113854.531000",
          "113854.531000",
          "113854.531000",
          "113854.531000",
          "113854.531000",
          "113854.531000",
          "113854.531000",
          "113854.531000",
          "113854.546000",
          "113854.546000",
          "113934.500000",
          "113934.500000",
          "113934.500000",
          "113934.500000",
          "113934.500000",
          "113934.515000",
          "113934.515000",
          "113934.515000",
          "113934.515000",
          "113934.515000",
          "113934.515000",
          "113934.515000",
          "113934.515000",
          "113934.531000",
          "113934.531000",
          "113934.531000",
          "113934.531000",
          "113934.531000",
          "113934.531000",
          "113934.531000",
          "114014.500000",
          "114014.500000",
          "114014.500000",
          "114014.500000",
          "114014.500000",
          "114014.515000",
          "114014.515000",
          "114014.515000",
          "114014.515000",
          "114014.515000",
          "114014.515000",
          "114014.515000",
          "114014.515000",
          "114014.531000",
          "114014.531000",
          "114014.531000",
          "114014.531000",
          "114014.531000",
          "114014.531000",
          "114014.531000",
          "114054.500000",
          "114054.500000",
          "114054.500000",
          "114054.500000",
          "114054.500000",
          "114054.500000",
          "114054.515000",
          "114054.515000",
          "114054.515000",
          "114054.515000",
          "114054.515000",
          "114054.515000",
          "114054.515000",
          "114054.531000",
          "114054.531000",
          "114054.531000",
          "114054.531000",
          "114054.531000",
          "114054.531000",
          "114054.531000",
          "114134.500000",
          "114134.500000",
          "114134.500000",
          "114134.500000",
          "114134.500000",
          "114134.515000",
          "114134.515000",
          "114134.515000",
          "114134.515000",
          "114134.515000",
          "114134.515000",
          "114134.515000",
          "114134.515000",
          "114134.531000",
          "114134.531000",
          "114134.531000",
          "114134.531000",
          "114134.531000",
          "114134.531000",
          "114134.546000",
          "114214.500000",
          "114214.500000",
          "114214.500000",
          "114214.500000",
          "114214.500000",
          "114214.500000",
          "114214.515000",
          "114214.515000",
          "114214.515000",
          "114214.515000",
          "114214.515000",
          "114214.515000",
          "114214.515000",
          "114214.531000",
          "114214.531000",
          "114214.531000",
          "114214.531000",
          "114214.531000",
          "114214.531000",
          "114214.531000",
          "114254.500000",
          "114254.500000",
          "114254.500000",
          "114254.500000",
          "114254.500000",
          "114254.515000",
          "114254.515000",
          "114254.515000",
          "114254.515000",
          "114254.515000",
          "114254.515000",
          "114254.515000",
          "114254.515000",
          "114254.531000",
          "114254.531000",
          "114254.531000",
          "114254.531000",
          "114254.531000",
          "114254.531000",
          "114254.531000",
          "114314.500000",
          "114314.500000",
          "114314.500000",
          "114314.500000",
          "114314.500000",
          "114314.515000",
          "114314.515000",
          "114314.515000",
          "114314.515000",
          "114314.515000",
          "114354.500000",
          "114354.500000",
          "114354.500000",
          "114354.500000",
          "114354.500000",
          "114354.515000",
          "114354.515000",
          "114354.515000",
          "114354.515000",
          "114354.515000",
          "114354.515000",
          "114354.515000",
          "114354.515000",
          "114354.531000",
          "114354.531000",
          "114354.531000",
          "114354.531000",
          "114354.531000",
          "114354.531000",
          "114354.531000",
          "114434.500000",
          "114434.500000",
          "114434.500000",
          "114434.500000",
          "114434.500000",
          "114434.515000",
          "114434.515000",
          "114434.515000",
          "114434.515000",
          "114434.515000",
          "114434.515000",
          "114434.515000",
          "114434.515000",
          "114434.531000",
          "114434.531000",
          "114434.531000",
          "114434.531000",
          "114434.531000",
          "114434.531000",
          "114434.531000",
          "114514.500000",
          "114514.500000",
          "114514.500000",
          "114514.500000",
          "114514.500000",
          "114514.515000",
          "114514.515000",
          "114514.515000",
          "114514.515000",
          "114514.515000",
          "114514.515000",
          "114514.515000",
          "114514.515000",
          "114514.531000",
          "114514.531000",
          "114514.531000",
          "114514.531000",
          "114514.531000",
          "114514.531000",
          "114514.531000",
          "114554.500000",
          "114554.500000",
          "114554.500000",
          "114554.500000",
          "114554.500000",
          "114554.515000",
          "114554.515000",
          "114554.515000",
          "114554.515000",
          "114554.515000",
          "114554.515000",
          "114554.515000",
          "114554.515000",
          "114554.531000",
          "114554.531000",
          "114554.531000",
          "114554.531000",
          "114554.531000",
          "114554.531000",
          "114554.531000",
          "114614.234000",
          "114614.234000",
          "114614.234000",
          "114614.234000",
          "114614.234000",
          "114614.234000",
          "114614.234000",
          "114614.234000",
          "114614.250000",
          "114614.250000"
        ],
        "InstanceNumber": [
          1,
          2,
          3,
          4,
          5,
          6,
          7,
          8,
          9,
          10,
          11,
          12,
          13,
          14,
          15,
          16,
          17,
          18,
          19,
          20,
          21,
          22,
          23,
          24,
          25,
          26,
          27,
          28,
          29,
          30,
          31,
          32,
          33,
          34,
          35,
          36,
          37,
          38,
          39,
          40,
          41,
          42,
          43,
          44,
          45,
          46,
          47,
          48,
          49,
          50,
          51,
          52,
          53,
          54,
          55,
          56,
          57,
          58,
