{
  "aor": 0.000705968992248062,
  "aqi": 0.008054523372093022,
  "bids_meta": {
    "AcquisitionMatrixPE": 68,
    "AcquisitionNumber": 1,
    "AcquisitionTime": "12:06:58.607500",
    "BandwidthPerPixelPhaseEncode": 31.289,
    "BaseResolution": 68,
    "CogAtlasID": "TODO",
    "CoilString": "C:HEA;HEP",
    "ConversionSoftware": "dcm2niix",
    "ConversionSoftwareVersion": "v1.0.20190902",
    "DerivedVendorReportedEchoSpacing": 0.000470002,
    "DeviceSerialNumber": "35450",
    "DwellTime": 3e-06,
    "EchoTime": 0.023,
    "EffectiveEchoSpacing": 0.000470002,
    "FlipAngle": 76,
    "ImageOrientationPatientDICOM": [
      1,
      0,
      0,
      0,
      0.999743,
      -0.0226873
    ],
    "ImageType": [
      "ORIGINAL",
      "PRIMARY",
      "M",
      "ND",
      "MOSAIC"
    ],
    "ImagingFrequency": 123.219,
    "InPlanePhaseEncodingDirectionDICOM": "COL",
    "InstitutionAddress": "Univeristy_Ave._197_Newark_North_East_US_07102-1814",
    "InstitutionName": "RUBIC",
    "InstitutionalDepartmentName": "Department",
    "MRAcquisitionType": "2D",
    "MagneticFieldStrength": 3,
    "Manufacturer": "Siemens",
    "ManufacturersModelName": "TrioTim",
    "Modality": "MR",
    "PartialFourier": 1,
    "PatientPosition": "HFS",
    "PercentPhaseFOV": 100,
    "PhaseEncodingDirection": "j-",
    "PhaseEncodingSteps": 68,
    "PhaseResolution": 1,
    "PixelBandwidth": 2451,
    "ProcedureStepDescription": "Krekelberg_David",
    "ProtocolName": "ep2d_bold_CardGameEPI_3",
    "PulseSequenceDetails": "%SiemensSeq%_ep2d_bold",
    "ReceiveCoilName": "HeadMatrix",
    "ReconMatrixPE": 68,
    "RepetitionTime": 2,
    "SAR": 0.173057,
    "ScanOptions": "FS",
    "ScanningSequence": "EP",
    "SequenceName": "_epfid2d1_68",
    "SequenceVariant": "SK",
    "SeriesDescription": "ep2d_bold_CardGameEPI_3",
    "SeriesNumber": 13,
    "ShimSetting": [
      1927,
      -647,
      -7593,
      724,
      -3,
      3,
      -22,
      32
    ],
    "SliceThickness": 2.5,
    "SliceTiming": [
      1.9525,
      1.895,
      1.84,
      1.785,
      1.7275,
      1.6725,
      1.6175,
      1.56,
      1.505,
      1.45,
      1.3925,
      1.3375,
      1.2825,
      1.2275,
      1.17,
      1.115,
      1.06,
      1.0025,
      0.9475,
      0.8925,
      0.835,
      0.78,
      0.725,
      0.67,
      0.6125,
      0.5575,
      0.5025,
      0.445,
      0.39,
      0.335,
      0.2775,
      0.2225,
      0.1675,
      0.11,
      0.055,
      0
    ],
    "SoftwareVersions": "syngo_MR_B19",
    "SpacingBetweenSlices": 3,
    "StationName": "MRC35450",
    "TaskName": "cardgame",
    "TotalReadoutTime": 0.0314901,
    "TxRefAmp": 334.055,
    "dataset": "<unset>",
    "dcmmeta_affine": [
      [
        -3.0,
        0.0,
        0.0,
        98.61016845703125
      ],
      [
        0.0,
        2.99922776222229,
        -0.06806199997663498,
        -70.66478729248047
      ],
      [
        0.0,
        0.06806199997663498,
        2.99922776222229,
        -45.918975830078125
      ],
      [
        0.0,
        0.0,
        0.0,
        1.0
      ]
    ],
    "dcmmeta_reorient_transform": [
      [
        0.0,
        -1.0,
        0.0,
        67.0
      ],
      [
        1.0,
        0.0,
        0.0,
        0.0
      ],
      [
        0.0,
        0.0,
        1.0,
        0.0
      ],
      [
        0.0,
        0.0,
        0.0,
        1.0
      ]
    ],
    "dcmmeta_shape": [
      68,
      68,
      36,
      258
    ],
    "dcmmeta_slice_dim": 2,
    "dcmmeta_version": 0.6,
    "global": {
      "const": {
        "AcquisitionMatrix": [
          68,
          0,
          0,
          68
        ],
        "AngioFlag": "N",
        "BitsAllocated": 16,
        "BitsStored": 12,
        "Columns": 408,
        "EchoNumbers": 1,
        "EchoTime": 23.0,
        "EchoTrainLength": 1,
        "FlipAngle": 76.0,
        "HighBit": 11,
        "ImageOrientationPatient": [
          1.0,
          0.0,
          0.0,
          0.0,
          0.99974260931238,
          -0.0226873340276
        ],
        "ImagePositionPatient": [
          -608.61016941071,
          -640.15220742896,
          -29.788279431571
        ],
        "ImageType": [
          "ORIGINAL",
          "PRIMARY",
          "M",
          "ND",
          "MOSAIC"
        ],
        "ImagedNucleus": "1H",
        "ImagingFrequency": 123.218552,
        "InPlanePhaseEncodingDirection": "COL",
        "MRAcquisitionType": "2D",
        "MagneticFieldStrength": 3.0,
        "Manufacturer": "SIEMENS",
        "ManufacturerModelName": "TrioTim",
        "Modality": "MR",
        "NumberOfAverages": 1.0,
        "NumberOfPhaseEncodingSteps": 68,
        "PercentPhaseFieldOfView": 100.0,
        "PercentSampling": 100.0,
        "PerformedProcedureStepStartTime": "104611.937000",
        "PhotometricInterpretation": "MONOCHROME2",
        "PixelBandwidth": 2451.0,
        "PixelRepresentation": 0,
        "PixelSpacing": [
          3.0,
          3.0
        ],
        "ProtocolName": "ep2d_bold_CardGameEPI_3",
        "RepetitionTime": 2000.0,
        "Rows": 408,
        "SAR": 0.17305749167329,
        "SamplesPerPixel": 1,
        "ScanOptions": "FS",
        "ScanningSequence": "EP",
        "SequenceName": "*epfid2d1_68",
        "SequenceVariant": "SK",
        "SeriesDescription": "ep2d_bold_CardGameEPI_3",
        "SeriesNumber": 13,
        "SeriesTime": "120754.500000",
        "SliceLocation": -44.303959164274,
        "SliceThickness": 2.5,
        "SmallestImagePixelValue": 0,
        "SoftwareVersions": "syngo MR B19",
        "SpacingBetweenSlices": 2.999999969363,
        "SpecificCharacterSet": "ISO_IR 100",
        "StudyID": "1",
        "StudyTime": "104611.828000",
        "TransmitCoilName": "Body",
        "VariableFlipAngleFlag": "N",
        "WindowCenterWidthExplanation": "Algo1",
        "dBdt": 0.0
      },
      "slices": {}
    },
    "modality": "bold",
    "run_id": 3,
    "subject_id": "210",
    "task_id": "cardgame",
    "time": {
      "samples": {
        "AcquisitionNumber": [
          1,
          2,
          3,
          4,
          5,
          6,
          7,
          8,
          9,
          10,
          11,
          12,
          13,
          14,
          15,
          16,
          17,
          18,
          19,
          20,
          21,
          22,
          23,
          24,
          25,
          26,
          27,
          28,
          29,
          30,
          31,
          32,
          33,
          34,
          35,
          36,
          37,
          38,
          39,
          40,
          41,
          42,
          43,
          44,
          45,
          46,
          47,
          48,
          49,
          50,
          51,
          52,
          53,
          54,
          55,
          56,
          57,
          58,
          59,
          60,
          61,
          62,
          63,
          64,
          65,
          66,
          67,
          68,
          69,
          70,
          71,
          72,
          73,
          74,
          75,
          76,
          77,
          78,
          79,
          80,
          81,
          82,
          83,
          84,
          85,
          86,
          87,
          88,
          89,
          90,
          91,
          92,
          93,
          94,
          95,
          96,
          97,
          98,
          99,
          100,
          101,
          102,
          103,
          104,
          105,
          106,
          107,
          108,
          109,
          110,
          111,
          112,
          113,
          114,
          115,
          116,
          117,
          118,
          119,
          120,
          121,
          122,
          123,
          124,
          125,
          126,
          127,
          128,
          129,
          130,
          131,
          132,
          133,
          134,
          135,
          136,
          137,
          138,
          139,
          140,
          141,
          142,
          143,
          144,
          145,
          146,
          147,
          148,
          149,
          150,
          151,
          152,
          153,
          154,
          155,
          156,
          157,
          158,
          159,
          160,
          161,
          162,
          163,
          164,
          165,
          166,
          167,
          168,
          169,
          170,
          171,
          172,
          173,
          174,
          175,
          176,
          177,
          178,
          179,
          180,
          181,
          182,
          183,
          184,
          185,
          186,
          187,
          188,
          189,
          190,
          191,
          192,
          193,
          194,
          195,
          196,
          197,
          198,
          199,
          200,
          201,
          202,
          203,
          204,
          205,
          206,
          207,
          208,
          209,
          210,
          211,
          212,
          213,
          214,
          215,
          216,
          217,
          218,
          219,
          220,
          221,
          222,
          223,
          224,
          225,
          226,
          227,
          228,
          229,
          230,
          231,
          232,
          233,
          234,
          235,
          236,
          237,
          238,
          239,
          240,
          241,
          242,
          243,
          244,
          245,
          246,
          247,
          248,
          249,
          250,
          251,
          252,
          253,
          254,
          255,
          256,
          257,
          258
        ],
        "AcquisitionTime": [
          "120658.607500",
          "120700.615000",
          "120702.622500",
          "120704.630000",
          "120706.637500",
          "120708.647500",
          "120710.655000",
          "120712.662500",
          "120714.670000",
          "120716.677500",
          "120718.687500",
          "120720.695000",
          "120722.702500",
          "120724.710000",
          "120726.720000",
          "120728.727500",
          "120730.735000",
          "120732.742500",
          "120734.750000",
          "120736.760000",
          "120738.767500",
          "120740.775000",
          "120742.782500",
          "120744.790000",
          "120746.800000",
          "120748.807500",
          "120750.815000",
          "120752.822500",
          "120754.832500",
          "120756.840000",
          "120758.847500",
          "120800.855000",
          "120802.862500",
          "120804.872500",
          "120806.880000",
          "120808.887500",
          "120810.895000",
          "120812.902500",
          "120814.912500",
          "120816.920000",
          "120818.927500",
          "120820.935000",
          "120822.942500",
          "120824.952500",
          "120826.960000",
          "120828.967500",
          "120830.975000",
          "120832.985000",
          "120834.992500",
          "120837.000000",
          "120839.007500",
          "120841.015000",
          "120843.025000",
          "120845.032500",
          "120847.040000",
          "120849.047500",
          "120851.055000",
          "120853.065000",
          "120855.072500",
          "120857.080000",
          "120859.087500",
          "120901.097500",
          "120903.105000",
          "120905.112500",
          "120907.120000",
          "120909.127500",
          "120911.137500",
          "120913.145000",
          "120915.152500",
          "120917.160000",
          "120919.167500",
          "120921.177500",
          "120923.185000",
          "120925.192500",
          "120927.200000",
          "120929.210000",
          "120931.217500",
          "120933.225000",
          "120935.232500",
          "120937.240000",
          "120939.250000",
          "120941.257500",
          "120943.265000",
          "120945.272500",
          "120947.280000",
          "120949.290000",
          "120951.297500",
          "120953.305000",
          "120955.312500",
          "120957.320000",
          "120959.330000",
          "121001.337500",
          "121003.345000",
          "121005.352500",
          "121007.362500",
          "121009.370000",
          "121011.377500",
          "121013.385000",
          "121015.392500",
          "121017.402500",
          "121019.410000",
          "121021.417500",
          "121023.425000",
          "121025.432500",
          "121027.442500",
          "121029.450000",
          "121031.457500",
          "121033.465000",
          "121035.475000",
          "121037.482500",
          "121039.490000",
          "121041.497500",
          "121043.505000",
          "121045.515000",
          "121047.522500",
          "121049.530000",
          "121051.537500",
          "121053.545000",
          "121055.555000",
          "121057.562500",
          "121059.570000",
          "121101.577500",
          "121103.587500",
          "121105.595000",
          "121107.602500",
          "121109.610000",
          "121111.617500",
          "121113.627500",
          "121115.635000",
          "121117.642500",
          "121119.650000",
          "121121.657500",
          "121123.667500",
          "121125.675000",
          "121127.682500",
          "121129.690000",
          "121131.697500",
          "121133.707500",
          "121135.715000",
          "121137.722500",
          "121139.730000",
          "121141.740000",
          "121143.747500",
          "121145.755000",
          "121147.762500",
          "121149.770000",
          "121151.780000",
          "121153.787500",
          "121155.795000",
          "121157.802500",
          "121159.810000",
          "121201.820000",
          "121203.827500",
          "121205.835000",
          "121207.842500",
          "121209.852500",
          "121211.860000",
          "121213.867500",
          "121215.875000",
          "121217.882500",
          "121219.892500",
          "121221.900000",
          "121223.907500",
          "121225.915000",
          "121227.922500",
          "121229.932500",
          "121231.940000",
          "121233.947500",
          "121235.955000",
          "121237.965000",
          "121239.972500",
          "121241.980000",
          "121243.987500",
          "121245.995000",
          "121248.005000",
          "121250.012500",
          "121252.020000",
          "121254.027500",
          "121256.035000",
          "121258.045000",
          "121300.052500",
          "121302.060000",
          "121304.067500",
          "121306.075000",
          "121308.085000",
          "121310.092500",
          "121312.100000",
          "121314.107500",
          "121316.117500",
          "121318.125000",
          "121320.132500",
          "121322.140000",
          "121324.147500",
          "121326.157500",
          "121328.165000",
          "121330.172500",
          "121332.180000",
          "121334.187500",
          "121336.197500",
          "121338.205000",
          "121340.212500",
          "121342.220000",
          "121344.230000",
          "121346.237500",
          "121348.245000",
          "121350.252500",
          "121352.260000",
          "121354.270000",
          "121356.277500",
          "121358.285000",
          "121400.292500",
          "121402.300000",
          "121404.310000",
          "121406.317500",
          "121408.325000",
          "121410.332500",
          "121412.342500",
          "121414.350000",
          "121416.357500",
          "121418.365000",
          "121420.372500",
          "121422.382500",
          "121424.390000",
          "121426.397500",
          "121428.405000",
          "121430.412500",
          "121432.422500",
          "121434.430000",
          "121436.437500",
          "121438.445000",
          "121440.455000",
          "121442.462500",
          "121444.470000",
          "121446.477500",
          "121448.485000",
          "121450.495000",
          "121452.502500",
          "121454.510000",
          "121456.517500",
          "121458.525000",
          "121500.535000",
          "121502.542500",
          "121504.550000",
          "121506.557500",
          "121508.565000",
          "121510.575000",
          "121512.582500",
          "121514.590000",
          "121516.597500",
          "121518.607500",
          "121520.615000",
          "121522.622500",
          "121524.630000",
          "121526.637500",
          "121528.647500",
          "121530.655000",
          "121532.662500",
          "121534.670000"
        ],
        "ContentTime": [
          "120754.500000",
          "120754.500000",
          "120754.500000",
          "120754.515000",
          "120754.515000",
          "120754.515000",
          "120754.515000",
          "120754.515000",
          "120754.515000",
          "120754.515000",
          "120754.515000",
          "120754.531000",
          "120754.531000",
          "120754.531000",
          "120754.531000",
          "120754.546000",
          "120754.546000",
          "120754.546000",
          "120754.546000",
          "120754.546000",
          "120754.546000",
          "120754.546000",
          "120754.562000",
          "120754.562000",
          "120754.562000",
          "120754.562000",
          "120754.562000",
          "120754.578000",
          "120834.500000",
          "120834.500000",
          "120834.500000",
          "120834.500000",
          "120834.500000",
          "120834.515000",
          "120834.515000",
          "120834.515000",
          "120834.515000",
          "120834.515000",
          "120834.515000",
          "120834.531000",
          "120834.531000",
          "120834.531000",
          "120834.531000",
          "120834.531000",
          "120834.531000",
          "120834.531000",
          "120834.546000",
          "120834.546000",
          "120914.500000",
          "120914.500000",
          "120914.500000",
          "120914.500000",
          "120914.500000",
          "120914.500000",
          "120914.515000",
          "120914.515000",
          "120914.515000",
          "120914.515000",
          "120914.515000",
          "120914.515000",
          "120914.515000",
          "120914.531000",
          "120914.531000",
          "120914.531000",
          "120914.531000",
          "120914.531000",
          "120914.531000",
          "120914.546000",
          "120954.500000",
          "120954.500000",
          "120954.500000",
          "120954.500000",
          "120954.500000",
          "120954.500000",
          "120954.515000",
          "120954.515000",
          "120954.515000",
          "120954.515000",
          "120954.515000",
          "120954.531000",
          "120954.531000",
          "120954.531000",
          "120954.531000",
          "120954.531000",
          "120954.531000",
          "120954.546000",
          "120954.546000",
          "120954.546000",
          "121034.500000",
          "121034.500000",
          "121034.500000",
          "121034.500000",
          "121034.500000",
          "121034.500000",
          "121034.515000",
          "121034.515000",
          "121034.515000",
          "121034.515000",
          "121034.515000",
          "121034.515000",
          "121034.515000",
          "121034.531000",
          "121034.531000",
          "121034.531000",
          "121034.531000",
          "121034.531000",
          "121034.531000",
          "121034.546000",
          "121114.500000",
          "121114.500000",
          "121114.500000",
          "121114.500000",
          "121114.500000",
          "121114.500000",
          "121114.515000",
          "121114.515000",
          "121114.515000",
          "121114.515000",
          "121114.515000",
          "121114.515000",
          "121114.515000",
          "121114.531000",
          "121114.531000",
          "121114.531000",
          "121114.531000",
          "121114.531000",
          "121114.531000",
          "121114.546000",
          "121154.500000",
          "121154.500000",
          "121154.500000",
          "121154.500000",
          "121154.500000",
          "121154.500000",
          "121154.515000",
          "121154.515000",
          "121154.515000",
          "121154.515000",
          "121154.515000",
          "121154.515000",
          "121154.515000",
          "121154.531000",
          "121154.531000",
          "121154.531000",
          "121154.531000",
          "121154.531000",
          "121154.546000",
          "121154.546000",
          "121234.500000",
          "121234.500000",
          "121234.500000",
          "121234.500000",
          "121234.500000",
          "121234.500000",
          "121234.515000",
          "121234.515000",
          "121234.515000",
          "121234.515000",
          "121234.515000",
          "121234.515000",
          "121234.515000",
          "121234.531000",
          "121234.531000",
          "121234.531000",
          "121234.546000",
          "121234.546000",
          "121234.546000",
          "121234.546000",
          "121314.500000",
          "121314.500000",
          "121314.500000",
          "121314.500000",
          "121314.500000",
          "121314.515000",
          "121314.515000",
          "121314.515000",
          "121314.515000",
          "121314.515000",
          "121314.515000",
          "121314.515000",
          "121314.531000",
          "121314.531000",
          "121314.531000",
          "121314.531000",
          "121314.546000",
          "121314.546000",
          "121314.546000",
          "121314.546000",
          "121354.500000",
          "121354.500000",
          "121354.500000",
          "121354.500000",
          "121354.500000",
          "121354.515000",
          "121354.515000",
          "121354.515000",
          "121354.515000",
          "121354.515000",
          "121354.515000",
          "121354.515000",
          "121354.515000",
          "121354.531000",
          "121354.531000",
          "121354.546000",
          "121354.546000",
          "121354.546000",
          "121354.546000",
          "121354.562000",
          "121434.500000",
          "121434.500000",
          "121434.500000",
          "121434.500000",
          "121434.500000",
          "121434.515000",
          "121434.515000",
          "121434.515000",
          "121434.515000",
          "121434.515000",
          "121434.515000",
          "121434.515000",
          "121434.515000",
          "121434.531000",
          "121434.531000",
          "121434.531000",
          "121434.546000",
          "121434.546000",
          "121434.546000",
          "121434.546000",
          "121514.500000",
          "121514.500000",
          "121514.500000",
          "121514.500000",
          "121514.500000",
          "121514.515000",
          "121514.515000",
          "121514.515000",
          "121514.515000",
          "121514.515000",
          "121514.515000",
          "121514.515000",
          "121514.515000",
          "121514.531000",
          "121514.531000",
          "121514.531000",
          "121514.531000",
          "121514.531000",
          "121514.531000",
          "121514.546000",
          "121534.015000",
          "121534.015000",
          "121534.015000",
          "121534.031000",
          "121534.031000",
          "121534.031000",
          "121534.031000",
          "121534.031000",
          "121534.031000",
          "121534.031000"
        ],
        "InstanceCreationTime": [
          "120754.500000",
          "120754.500000",
          "120754.500000",
          "120754.515000",
          "120754.515000",
          "120754.515000",
          "120754.515000",
          "120754.515000",
          "120754.515000",
          "120754.515000",
          "120754.515000",
          "120754.531000",
          "120754.531000",
          "120754.531000",
          "120754.531000",
          "120754.546000",
          "120754.546000",
          "120754.546000",
          "120754.546000",
          "120754.546000",
          "120754.546000",
          "120754.546000",
          "120754.562000",
          "120754.562000",
          "120754.562000",
          "120754.562000",
          "120754.562000",
          "120754.578000",
          "120834.500000",
          "120834.500000",
          "120834.500000",
          "120834.500000",
          "120834.500000",
          "120834.515000",
          "120834.515000",
          "120834.515000",
          "120834.515000",
          "120834.515000",
          "120834.515000",
          "120834.531000",
          "120834.531000",
          "120834.531000",
          "120834.531000",
          "120834.531000",
          "120834.531000",
          "120834.531000",
          "120834.546000",
          "120834.546000",
          "120914.500000",
          "120914.500000",
          "120914.500000",
          "120914.500000",
          "120914.500000",
          "120914.500000",
          "120914.515000",
          "120914.515000",
          "120914.515000",
          "120914.515000",
          "120914.515000",
          "120914.515000",
          "120914.515000",
          "120914.531000",
          "120914.531000",
          "120914.531000",
          "120914.531000",
          "120914.531000",
          "120914.531000",
          "120914.546000",
          "120954.500000",
          "120954.500000",
          "120954.500000",
          "120954.500000",
          "120954.500000",
          "120954.500000",
          "120954.515000",
          "120954.515000",
          "120954.515000",
          "120954.515000",
          "120954.515000",
          "120954.531000",
          "120954.531000",
          "120954.531000",
          "120954.531000",
          "120954.531000",
          "120954.531000",
          "120954.546000",
          "120954.546000",
          "120954.546000",
          "121034.500000",
          "121034.500000",
          "121034.500000",
          "121034.500000",
          "121034.500000",
          "121034.500000",
          "121034.515000",
          "121034.515000",
          "121034.515000",
          "121034.515000",
          "121034.515000",
          "121034.515000",
          "121034.515000",
          "121034.531000",
          "121034.531000",
          "121034.531000",
          "121034.531000",
          "121034.531000",
          "121034.531000",
          "121034.546000",
          "121114.500000",
          "121114.500000",
          "121114.500000",
          "121114.500000",
          "121114.500000",
          "121114.500000",
          "121114.515000",
          "121114.515000",
          "121114.515000",
          "121114.515000",
          "121114.515000",
          "121114.515000",
          "121114.515000",
          "121114.531000",
          "121114.531000",
          "121114.531000",
          "121114.531000",
          "121114.531000",
          "121114.531000",
          "121114.546000",
          "121154.500000",
          "121154.500000",
          "121154.500000",
          "121154.500000",
          "121154.500000",
          "121154.500000",
          "121154.515000",
          "121154.515000",
          "121154.515000",
          "121154.515000",
          "121154.515000",
          "121154.515000",
          "121154.515000",
          "121154.531000",
          "121154.531000",
          "121154.531000",
          "121154.531000",
          "121154.531000",
          "121154.546000",
          "121154.546000",
          "121234.500000",
          "121234.500000",
          "121234.500000",
          "121234.500000",
          "121234.500000",
          "121234.500000",
          "121234.515000",
          "121234.515000",
          "121234.515000",
          "121234.515000",
          "121234.515000",
          "121234.515000",
          "121234.515000",
          "121234.531000",
          "121234.531000",
          "121234.531000",
          "121234.546000",
          "121234.546000",
          "121234.546000",
          "121234.546000",
          "121314.500000",
          "121314.500000",
          "121314.500000",
          "121314.500000",
          "121314.500000",
          "121314.515000",
          "121314.515000",
          "121314.515000",
          "121314.515000",
          "121314.515000",
          "121314.515000",
          "121314.515000",
          "121314.531000",
          "121314.531000",
          "121314.531000",
          "121314.531000",
          "121314.546000",
          "121314.546000",
          "121314.546000",
          "121314.546000",
          "121354.500000",
          "121354.500000",
          "121354.500000",
          "121354.500000",
          "121354.500000",
          "121354.515000",
          "121354.515000",
          "121354.515000",
          "121354.515000",
          "121354.515000",
          "121354.515000",
          "121354.515000",
          "121354.515000",
          "121354.531000",
          "121354.531000",
          "121354.546000",
          "121354.546000",
          "121354.546000",
          "121354.546000",
          "121354.562000",
          "121434.500000",
          "121434.500000",
          "121434.500000",
          "121434.500000",
          "121434.500000",
          "121434.515000",
          "121434.515000",
          "121434.515000",
          "121434.515000",
          "121434.515000",
          "121434.515000",
          "121434.515000",
          "121434.515000",
          "121434.531000",
          "121434.531000",
          "121434.531000",
