{
    "AcquisitionMatrixPE": 68, 
    "AcquisitionNumber": 1, 
    "AcquisitionTime": "09:19:8.872500", 
    "BaseResolution": 68, 
    "CoilString": "C:HEA;HEP", 
    "ConversionSoftware": "dcm2niix", 
    "ConversionSoftwareVersion": "v1.0.20190902", 
    "DeviceSerialNumber": "35450", 
    "DwellTime": 2.82e-05, 
    "EchoNumber": 2, 
    "EchoTime": 0.00765, 
    "EchoTime1": 0.00519, 
    "EchoTime2": 0.00765, 
    "FlipAngle": 60, 
    "ImageOrientationPatientDICOM": [
        0.999962, 
        0.0020224, 
        0.00848896, 
        -4.18132e-08, 
        0.972776, 
        -0.231748
    ], 
    "ImageType": [
        "ORIGINAL", 
        "PRIMARY", 
        "P", 
        "ND"
    ], 
    "ImagingFrequency": 123.219, 
    "InPlanePhaseEncodingDirectionDICOM": "COL", 
    "InstitutionAddress": "Univeristy_Ave._197_Newark_North_East_US_07102-1814", 
    "InstitutionName": "RUBIC", 
    "InstitutionalDepartmentName": "Department", 
    "IntendedFor": [
        "func/sub-203_task-rest_run-04_bold.nii.gz", 
        "func/sub-203_task-cardgame_run-01_bold.nii.gz", 
        "func/sub-203_task-cardgame_run-03_bold.nii.gz", 
        "func/sub-203_task-rest_run-03_bold.nii.gz", 
        "func/sub-203_task-cardgame_run-02_bold.nii.gz", 
        "func/sub-203_task-rest_run-02_bold.nii.gz", 
        "func/sub-203_task-rest_run-01_bold.nii.gz"
    ], 
    "MRAcquisitionType": "2D", 
    "MagneticFieldStrength": 3, 
    "Manufacturer": "Siemens", 
    "ManufacturersModelName": "TrioTim", 
    "Modality": "MR", 
    "PartialFourier": 1, 
    "PatientPosition": "HFS", 
    "PercentPhaseFOV": 100, 
    "PhaseEncodingDirection": "j-", 
    "PhaseEncodingSteps": 68, 
    "PhaseResolution": 1, 
    "PixelBandwidth": 261, 
    "ProcedureStepDescription": "Krekelberg_David", 
    "ProtocolName": "gre_field_mapping", 
    "PulseSequenceDetails": "%SiemensSeq%_gre_field_mapping", 
    "ReceiveCoilName": "HeadMatrix", 
    "ReconMatrixPE": 68, 
    "RepetitionTime": 0.402, 
    "SAR": 0.299728, 
    "ScanningSequence": "GR", 
    "SequenceName": "_fm2d2r", 
    "SequenceVariant": "SP", 
    "SeriesDescription": "gre_field_mapping", 
    "SeriesNumber": 5, 
    "ShimSetting": [
        1986, 
        -527, 
        -7580, 
        697, 
        15, 
        76, 
        -374, 
        -71
    ], 
    "SliceThickness": 2.5, 
    "SliceTiming": [
        0.20312, 
        0, 
        0.21094, 
        0.00781, 
        0.22656, 
        0.02344, 
        0.23438, 
        0.03125, 
        0.24219, 
        0.04688, 
        0.25781, 
        0.05469, 
        0.26562, 
        0.0625, 
        0.28125, 
        0.07812, 
        0.28906, 
        0.08594, 
        0.29688, 
        0.10156, 
        0.3125, 
        0.10938, 
        0.32031, 
        0.125, 
        0.33594, 
        0.13281, 
        0.34375, 
        0.14844, 
        0.35938, 
        0.15625, 
        0.36719, 
        0.17188, 
        0.38281, 
        0.17969, 
        0.39062, 
        0.1875
    ], 
    "SoftwareVersions": "syngo_MR_B19", 
    "SpacingBetweenSlices": 3, 
    "StationName": "MRC35450", 
    "TxRefAmp": 435.438, 
    "dcmmeta_affine": [
        [
            -2.9998857975006104, 
            -1.2543948457732768e-07, 
            0.026179790496826172, 
            105.60576629638672
        ], 
        [
            -0.00606719683855772, 
            2.918327569961548, 
            -0.6952172517776489, 
            -72.39857482910156
        ], 
        [
            0.025466885417699814, 
            0.6952437162399292, 
            2.918212890625, 
            -58.60542678833008
        ], 
        [
            0.0, 
            0.0, 
            0.0, 
            1.0
        ]
    ], 
    "dcmmeta_reorient_transform": [
        [
            0.0, 
            -1.0, 
            0.0, 
            67.0
        ], 
        [
            1.0, 
            0.0, 
            0.0, 
            0.0
        ], 
        [
            0.0, 
            0.0, 
            -1.0, 
            35.0
        ], 
        [
            0.0, 
            0.0, 
            0.0, 
            1.0
        ]
    ], 
    "dcmmeta_shape": [
        68, 
        68, 
        36
    ], 
    "dcmmeta_slice_dim": 2, 
    "dcmmeta_version": 0.6, 
    "global": {
        "const": {
            "AcquisitionMatrix": [
                68, 
                0, 
                0, 
                68
            ], 
            "AcquisitionNumber": 1, 
            "AngioFlag": "N", 
            "BitsAllocated": 16, 
            "BitsStored": 12, 
            "Columns": 68, 
            "EchoNumbers": 2, 
            "EchoTime": 7.65, 
            "EchoTrainLength": 1, 
            "FlipAngle": 60.0, 
            "HighBit": 11, 
            "ImageOrientationPatient": [
                0.99996192298765, 
                0.00202239900684, 
                0.00848896207399, 
                -4.1813161e-08, 
                0.97277587834468, 
                -0.2317479029263
            ], 
            "ImageType": [
                "ORIGINAL", 
                "PRIMARY", 
                "P", 
                "ND"
            ], 
            "ImagedNucleus": "1H", 
            "ImagingFrequency": 123.218568, 
            "InPlanePhaseEncodingDirection": "COL", 
            "MRAcquisitionType": "2D", 
            "MagneticFieldStrength": 3.0, 
            "Manufacturer": "SIEMENS", 
            "ManufacturerModelName": "TrioTim", 
            "Modality": "MR", 
            "NumberOfAverages": 1.0, 
            "NumberOfPhaseEncodingSteps": 68, 
            "PercentPhaseFieldOfView": 100.0, 
            "PercentSampling": 100.0, 
            "PerformedProcedureStepStartTime": "085933.765000", 
            "PhotometricInterpretation": "MONOCHROME2", 
            "PixelBandwidth": 261.0, 
            "PixelRepresentation": 0, 
            "PixelSpacing": [
                3.0, 
                3.0
            ], 
            "ProtocolName": "gre_field_mapping", 
            "RepetitionTime": 402.0, 
            "RescaleIntercept": -4096.0, 
            "RescaleSlope": 2.0, 
            "RescaleType": "US", 
            "Rows": 68, 
            "SAR": 0.29972783472107, 
            "SamplesPerPixel": 1, 
            "ScanningSequence": "GR", 
            "SequenceName": "*fm2d2r", 
            "SequenceVariant": "SP", 
            "SeriesDescription": "gre_field_mapping", 
            "SeriesNumber": 5, 
            "SeriesTime": "092011.031000", 
            "SliceThickness": 2.5, 
            "SoftwareVersions": "syngo MR B19", 
            "SpacingBetweenSlices": 3.0, 
            "SpecificCharacterSet": "ISO_IR 100", 
            "StudyID": "1", 
            "StudyTime": "085933.437000", 
            "TransmitCoilName": "Body", 
            "VariableFlipAngleFlag": "N", 
            "WindowCenterWidthExplanation": "Algo1", 
            "dBdt": 0.0
        }, 
        "slices": {
            "AcquisitionTime": [
                "091908.872500", 
                "091908.670000", 
                "091908.882500", 
                "091908.682500", 
                "091908.895000", 
                "091908.692500", 
                "091908.905000", 
                "091908.705000", 
                "091908.917500", 
                "091908.715000", 
                "091908.927500", 
                "091908.727500", 
                "091908.940000", 
                "091908.737500", 
                "091908.950000", 
                "091908.750000", 
                "091908.962500", 
                "091908.760000", 
                "091908.972500", 
                "091908.772500", 
                "091908.985000", 
                "091908.782500", 
                "091908.995000", 
                "091908.795000", 
                "091909.007500", 
                "091908.805000", 
                "091909.017500", 
                "091908.817500", 
                "091909.030000", 
                "091908.827500", 
                "091909.040000", 
                "091908.840000", 
                "091909.052500", 
                "091908.850000", 
                "091909.062500", 
                "091908.862500"
            ], 
            "ContentTime": [
                "092011.062000", 
                "092011.031000", 
                "092011.078000", 
                "092011.031000", 
                "092011.078000", 
                "092011.046000", 
                "092011.078000", 
                "092011.046000", 
                "092011.078000", 
                "092011.046000", 
                "092011.078000", 
                "092011.046000", 
                "092011.078000", 
                "092011.046000", 
                "092011.078000", 
                "092011.046000", 
                "092011.078000", 
                "092011.046000", 
                "092011.078000", 
                "092011.046000", 
                "092011.093000", 
                "092011.062000", 
                "092011.093000", 
                "092011.062000", 
                "092011.093000", 
                "092011.062000", 
                "092011.093000", 
                "092011.062000", 
                "092011.093000", 
                "092011.062000", 
                "092011.093000", 
                "092011.062000", 
                "092011.093000", 
                "092011.062000", 
                "092011.093000", 
                "092011.062000"
            ], 
            "CsaImage.ICE_Dims": [
                "X_2_1_1_1_1_1_19_1_1_1_1_74", 
                "X_2_1_1_1_1_1_1_1_1_2_1_74", 
                "X_2_1_1_1_1_1_20_1_1_3_1_74", 
                "X_2_1_1_1_1_1_2_1_1_4_1_74", 
                "X_2_1_1_1_1_1_21_1_1_5_1_74", 
                "X_2_1_1_1_1_1_3_1_1_6_1_74", 
                "X_2_1_1_1_1_1_22_1_1_7_1_74", 
                "X_2_1_1_1_1_1_4_1_1_8_1_74", 
                "X_2_1_1_1_1_1_23_1_1_9_1_74", 
                "X_2_1_1_1_1_1_5_1_1_10_1_74", 
                "X_2_1_1_1_1_1_24_1_1_11_1_74", 
                "X_2_1_1_1_1_1_6_1_1_12_1_74", 
                "X_2_1_1_1_1_1_25_1_1_13_1_74", 
                "X_2_1_1_1_1_1_7_1_1_14_1_74", 
                "X_2_1_1_1_1_1_26_1_1_15_1_74", 
                "X_2_1_1_1_1_1_8_1_1_16_1_74", 
                "X_2_1_1_1_1_1_27_1_1_17_1_74", 
                "X_2_1_1_1_1_1_9_1_1_18_1_74", 
                "X_2_1_1_1_1_1_28_1_1_19_1_74", 
                "X_2_1_1_1_1_1_10_1_1_20_1_74", 
                "X_2_1_1_1_1_1_29_1_1_21_1_74", 
                "X_2_1_1_1_1_1_11_1_1_22_1_74", 
                "X_2_1_1_1_1_1_30_1_1_23_1_74", 
                "X_2_1_1_1_1_1_12_1_1_24_1_74", 
                "X_2_1_1_1_1_1_31_1_1_25_1_74", 
                "X_2_1_1_1_1_1_13_1_1_26_1_74", 
                "X_2_1_1_1_1_1_32_1_1_27_1_74", 
                "X_2_1_1_1_1_1_14_1_1_28_1_74", 
                "X_2_1_1_1_1_1_33_1_1_29_1_74", 
                "X_2_1_1_1_1_1_15_1_1_30_1_74", 
                "X_2_1_1_1_1_1_34_1_1_31_1_74", 
                "X_2_1_1_1_1_1_16_1_1_32_1_74", 
                "X_2_1_1_1_1_1_35_1_1_33_1_74", 
                "X_2_1_1_1_1_1_17_1_1_34_1_74", 
                "X_2_1_1_1_1_1_36_1_1_35_1_74", 
                "X_2_1_1_1_1_1_18_1_1_36_1_74"
            ], 
            "CsaImage.ProtocolSliceNumber": [
                0, 
                1, 
                2, 
                3, 
                4, 
                5, 
                6, 
                7, 
                8, 
                9, 
                10, 
                11, 
                12, 
                13, 
                14, 
                15, 
                16, 
                17, 
                18, 
                19, 
                20, 
                21, 
                22, 
                23, 
                24, 
                25, 
                26, 
                27, 
                28, 
                29, 
                30, 
                31, 
                32, 
                33, 
                34, 
                35
            ], 
            "CsaImage.SliceMeasurementDuration": [
                54085.0, 
                54085.0, 
                54085.0, 
                54085.0, 
                54085.0, 
                54085.0, 
                54085.0, 
                54082.5, 
                54085.0, 
                54085.0, 
                54085.0, 
                54082.5, 
                54085.0, 
                54085.0, 
                54085.0, 
                54082.5, 
                54085.0, 
                54085.0, 
                54085.0, 
                54082.5, 
                54085.0, 
                54085.0, 
                54085.0, 
                54082.5, 
                54085.0, 
                54085.0, 
                54085.0, 
                54082.5, 
                54082.5, 
                54085.0, 
                54085.0, 
                54082.5, 
                54082.5, 
                54085.0, 
                54085.0, 
                54082.5
            ], 
            "CsaImage.SlicePosition_PCS": [
                [
                    -105.60576559, 
                    -123.12937737, 
                    -12.02422271
                ], 
                [
                    -105.63194514, 
                    -122.43416024, 
                    -9.10600791
                ], 
                [
                    -105.6581247, 
                    -121.7389431, 
                    -6.1877912
                ], 
                [
                    -105.68430425, 
                    -121.04372597, 
                    -3.2695745
                ], 
                [
                    -105.7104838, 
                    -120.34850884, 
                    -0.35135779
                ], 
                [
                    -105.73666359, 
                    -119.6532898, 
                    2.56685891
                ], 
                [
                    -105.76284314, 
                    -118.95807267, 
                    5.48507562
                ], 
                [
                    -105.78902269, 
                    -118.26285553, 
                    8.40329232
                ], 
                [
                    -105.81520225, 
                    -117.5676384, 
                    11.32150807
                ], 
                [
                    -105.84138204, 
                    -116.87242127, 
                    14.23972478
                ], 
                [
                    -105.86756159, 
                    -116.17720414, 
                    17.15794149
                ], 
                [
                    -105.89374114, 
                    -115.481987, 
                    20.07615795
                ], 
                [
                    -105.91992069, 
                    -114.78676987, 
                    22.99437446
                ], 
                [
                    -105.94610048, 
                    -114.09155274, 
                    25.91259089
                ], 
                [
                    -105.97228004, 
                    -113.39633561, 
                    28.83080735
                ], 
                [
                    -105.99845935, 
                    -112.70111847, 
                    31.74902406
                ], 
                [
                    -106.02463914, 
                    -112.00590134, 
                    34.66724076
                ], 
                [
                    -106.05081893, 
                    -111.31068421, 
                    37.58545747
                ], 
                [
                    -106.07699824, 
                    -110.61546612, 
                    40.50367417
                ], 
                [
                    -106.10317803, 
                    -109.92024899, 
                    43.42189088
                ], 
                [
                    -106.12935782, 
                    -109.22503186, 
                    46.34010568
                ], 
                [
                    -106.15553714, 
                    -108.52981472, 
                    49.25832238
                ], 
                [
                    -106.18171693, 
                    -107.83459759, 
                    52.17653909
                ], 
                [
                    -106.20789624, 
                    -107.13938046, 
                    55.0947577
                ], 
                [
                    -106.23407603, 
                    -106.44416333, 
                    58.01297441
                ], 
                [
                    -106.26025582, 
                    -105.74894572, 
                    60.9311873
                ], 
                [
                    -106.28643514, 
                    -105.05372858, 
                    63.849404
                ], 
                [
                    -106.31261493, 
                    -104.35851145, 
                    66.76762071
                ], 
                [
                    -106.33879424, 
                    -103.66329432, 
                    69.68583741
                ], 
                [
                    -106.36497403, 
                    -102.96807695, 
                    72.60405412
                ], 
                [
                    -106.39115382, 
                    -102.27285982, 
                    75.52227082
                ], 
                [
                    -106.41733314, 
                    -101.57764244, 
                    78.44048753
                ], 
                [
                    -106.44351293, 
                    -100.88242519, 
                    81.35870423
                ], 
                [
                    -106.46969272, 
                    -100.187208, 
                    84.27692094
                ], 
                [
                    -106.49587203, 
                    -99.49199076, 
                    87.19514146
                ], 
                [
                    -106.52205182, 
                    -98.7967735, 
                    90.11335435
                ]
            ], 
            "CsaImage.TimeAfterStart": [
                0.6075, 
                0.4075, 
                0.62, 
                0.4175, 
                0.63, 
                0.43, 
                0.6425, 
                0.44, 
                0.6525, 
                0.4525, 
                0.665, 
                0.4625, 
                0.675, 
                0.475, 
                0.6875, 
                0.485, 
                0.6975, 
                0.495, 
                0.71, 
                0.5075, 
                0.72, 
                0.5175, 
                0.7325, 
                0.53, 
                0.7425, 
                0.54, 
                0.755, 
                0.5525, 
                0.765, 
                0.5625, 
                0.7775, 
                0.575, 
                0.7875, 
                0.585, 
                0.7975, 
                0.5975
            ], 
            "ImagePositionPatient": [
                [
                    -105.60576559112, 
                    -123.12937736908, 
                    -12.024222707137
                ], 
                [
                    -105.6319451432, 
                    -122.43416023651, 
                    -9.1060079091634
                ], 
                [
                    -105.65812469527, 
                    -121.73894310394, 
                    -6.1877912038412
                ], 
                [
                    -105.68430424735, 
                    -121.04372597137, 
                    -3.2695744985189
                ], 
                [
                    -105.71048379943, 
                    -120.3485088388, 
                    -0.3513577931966
                ], 
                [
                    -105.73666358993, 
                    -119.65328979889, 
                    2.5668589121256
                ], 
                [
                    -105.762843142, 
                    -118.95807266632, 
                    5.4850756174479
                ], 
                [
                    -105.78902269408, 
                    -118.26285553375, 
                    8.4032923227702
                ], 
                [
                    -105.81520224616, 
                    -117.56763840118, 
                    11.321508074418
                ], 
                [
                    -105.84138203666, 
                    -116.87242126861, 
                    14.23972477974
                ], 
                [
                    -105.86756158874, 
                    -116.17720413605, 
                    17.157941485063
                ], 
                [
                    -105.89374114081, 
                    -115.48198700348, 
                    20.076157951966
                ], 
                [
                    -105.91992069289, 
                    -114.78676987091, 
                    22.994374463574
                ], 
                [
                    -105.94610048339, 
                    -114.09155273834, 
                    25.912590885774
                ], 
                [
                    -105.97228003547, 
                    -113.39633560577, 
                    28.830807352677
                ], 
                [
                    -105.99845934913, 
                    -112.7011184732, 
                    31.749024058
                ], 
                [
                    -106.02463913962, 
                    -112.00590134064, 
                    34.667240763322
                ], 
                [
                    -106.05081893012, 
                    -111.31068420807, 
                    37.585457468644
                ], 
                [
                    -106.07699824378, 
                    -110.61546612182, 
                    40.503674173966
                ], 
                [
                    -106.10317803428, 
                    -109.92024898926, 
                    43.421890879289
                ], 
                [
                    -106.12935782477, 
                    -109.22503185669, 
                    46.340105677262
                ], 
                [
                    -106.15553713843, 
                    -108.52981472412, 
                    49.258322382585
                ], 
                [
                    -106.18171692893, 
                    -107.83459759155, 
                    52.176539087907
                ], 
                [
                    -106.20789624259, 
                    -107.13938045898, 
                    55.094757700578
                ], 
                [
                    -106.23407603309, 
                    -106.44416332641, 
                    58.0129744059
                ], 
                [
                    -106.26025582358, 
                    -105.74894571701, 
                    60.931187296525
                ], 
                [
                    -106.28643513724, 
                    -105.05372858444, 
                    63.849404001847
                ], 
                [
                    -106.31261492774, 
                    -104.35851145187, 
                    66.76762070717
                ], 
                [
                    -106.3387942414, 
                    -103.6632943193, 
                    69.685837412492
                ], 
                [
                    -106.3649740319, 
                    -102.96807694832, 
                    72.604054117814
                ], 
                [
                    -106.39115382239, 
                    -102.27285981575, 
                    75.522270823136
                ], 
                [
                    -106.41733313605, 
                    -101.57764244476, 
                    78.440487528459
                ], 
                [
                    -106.44351292655, 
                    -100.88242519298, 
                    81.358704233781
                ], 
                [
                    -106.46969271705, 
                    -100.18720800081, 
                    84.276920939103
                ], 
                [
                    -106.49587203071, 
                    -99.491990756484, 
                    87.195141459123
                ], 
                [
                    -106.5220518212, 
                    -98.796773497256, 
                    90.113354349748
                ]
            ], 
            "InstanceCreationTime": [
                "092011.062000", 
                "092011.031000", 
                "092011.078000", 
                "092011.031000", 
                "092011.078000", 
                "092011.046000", 
                "092011.078000", 
                "092011.046000", 
                "092011.078000", 
                "092011.046000", 
                "092011.078000", 
                "092011.046000", 
                "092011.078000", 
                "092011.046000", 
                "092011.078000", 
                "092011.046000", 
                "092011.078000", 
                "092011.046000", 
                "092011.078000", 
                "092011.046000", 
                "092011.093000", 
                "092011.062000", 
                "092011.093000", 
                "092011.062000", 
                "092011.093000", 
                "092011.062000", 
                "092011.093000", 
                "092011.062000", 
                "092011.093000", 
                "092011.062000", 
                "092011.093000", 
                "092011.062000", 
                "092011.093000", 
                "092011.062000", 
                "092011.093000", 
                "092011.062000"
            ], 
            "InstanceNumber": [
                1, 
                2, 
                3, 
                4, 
                5, 
                6, 
                7, 
                8, 
                9, 
                10, 
                11, 
                12, 
                13, 
                14, 
                15, 
                16, 
                17, 
                18, 
                19, 
                20, 
                21, 
                22, 
                23, 
                24, 
                25, 
                26, 
                27, 
                28, 
                29, 
                30, 
                31, 
                32, 
                33, 
                34, 
                35, 
                36
            ], 
            "LargestImagePixelValue": [
                4089, 
                4078, 
                4093, 
                4082, 
                4094, 
                4085, 
                4094, 
                4047, 
                4076, 
                4092, 
                4067, 
                4085, 
                4093, 
                4090, 
                4084, 
                4090, 
                4085, 
                4087, 
                4093, 
                4083, 
                4092, 
                4086, 
                4067, 
                4071, 
                4090, 
                4094, 
                4093, 
                4092, 
                4090, 
                4091, 
                4094, 
                4093, 
                4093, 
                4092, 
                4090, 
                4093
            ], 
            "SliceLocation": [
                -39.308743459734, 
                -36.308745153489, 
                -33.308744991891, 
                -30.308744830294, 
                -27.308744668696, 
                -24.308744063011, 
                -21.308743901413, 
                -18.308743739816, 
                -15.308744505894, 
                -12.308744342216, 
                -9.3087441806183, 
                -6.3087442509398, 
                -3.3087442777764, 
                -0.308744389502, 
                2.6912555401765, 
                5.6912556996935, 
                8.6912558633717, 
                11.69125602705, 
                14.69125640757, 
                17.691256571249, 
                20.691254879575, 
                23.691255039092, 
                26.69125520277, 
                29.691257217639, 
                32.691257381317, 
                35.691253944793, 
                38.69125410431, 
                41.691254267988, 
                44.691254427505, 
                47.691254646434, 
                50.691254810112, 
                53.69125502488, 
                56.691255216184, 
                59.691255393675, 
                62.691259289795, 
                65.691255772121
            ], 
            "SmallestImagePixelValue": [
                9, 
                0, 
                13, 
                6, 
                5, 
                5, 
                23, 
                50, 
                1, 
                8, 
                7, 
                3, 
                18, 
                7, 
                0, 
                2, 
                8, 
                0, 
                1, 
                5, 
                0, 
                0, 
                3, 
                13, 
                0, 
                0, 
                0, 
                1, 
                0, 
                7, 
                0, 
                0, 
                7, 
                3, 
                0, 
                0
            ], 
            "WindowCenter": [
                -278.0, 
                -258.0, 
                -282.0, 
                -180.0, 
                -160.0, 
                -242.0, 
                -210.0, 
                -232.0, 
                -210.0, 
                -206.0, 
                -330.0, 
