{
  "aor": 0.0007390697674418605,
  "aqi": 0.009099648372093021,
  "bids_meta": {
    "AcquisitionMatrixPE": 68,
    "AcquisitionNumber": 1,
    "AcquisitionTime": "11:30:49.917500",
    "BandwidthPerPixelPhaseEncode": 31.289,
    "BaseResolution": 68,
    "CogAtlasID": "TODO",
    "CoilString": "C:HEA;HEP",
    "ConversionSoftware": "dcm2niix",
    "ConversionSoftwareVersion": "v1.0.20190902",
    "DerivedVendorReportedEchoSpacing": 0.000470002,
    "DeviceSerialNumber": "35450",
    "DwellTime": 3e-06,
    "EchoTime": 0.023,
    "EffectiveEchoSpacing": 0.000470002,
    "FlipAngle": 76,
    "ImageOrientationPatientDICOM": [
      1,
      0,
      0,
      0,
      0.992546,
      -0.121869
    ],
    "ImageType": [
      "ORIGINAL",
      "PRIMARY",
      "M",
      "ND",
      "MOSAIC"
    ],
    "ImagingFrequency": 123.218,
    "InPlanePhaseEncodingDirectionDICOM": "COL",
    "InstitutionAddress": "Univeristy_Ave._197_Newark_North_East_US_07102-1814",
    "InstitutionName": "RUBIC",
    "InstitutionalDepartmentName": "Department",
    "MRAcquisitionType": "2D",
    "MagneticFieldStrength": 3,
    "Manufacturer": "Siemens",
    "ManufacturersModelName": "TrioTim",
    "Modality": "MR",
    "PartialFourier": 1,
    "PatientPosition": "HFS",
    "PercentPhaseFOV": 100,
    "PhaseEncodingDirection": "j-",
    "PhaseEncodingSteps": 68,
    "PhaseResolution": 1,
    "PixelBandwidth": 2451,
    "ProcedureStepDescription": "Krekelberg_David",
    "ProtocolName": "ep2d_bold_CardGameEPI_1",
    "PulseSequenceDetails": "%SiemensSeq%_ep2d_bold",
    "ReceiveCoilName": "HeadMatrix",
    "ReconMatrixPE": 68,
    "RepetitionTime": 2,
    "SAR": 0.186945,
    "ScanOptions": "FS",
    "ScanningSequence": "EP",
    "SequenceName": "_epfid2d1_68",
    "SequenceVariant": "SK",
    "SeriesDescription": "ep2d_bold_CardGameEPI_1",
    "SeriesNumber": 6,
    "ShimSetting": [
      1960,
      -584,
      -7540,
      678,
      -65,
      -338,
      -370,
      -115
    ],
    "SliceThickness": 2.5,
    "SliceTiming": [
      1.9525,
      1.8975,
      1.84,
      1.785,
      1.73,
      1.675,
      1.6175,
      1.5625,
      1.5075,
      1.45,
      1.395,
      1.34,
      1.2825,
      1.2275,
      1.1725,
      1.115,
      1.06,
      1.005,
      0.95,
      0.8925,
      0.8375,
      0.7825,
      0.725,
      0.67,
      0.615,
      0.5575,
      0.5025,
      0.4475,
      0.3925,
      0.335,
      0.28,
      0.225,
      0.1675,
      0.1125,
      0.0575,
      0
    ],
    "SoftwareVersions": "syngo_MR_B19",
    "SpacingBetweenSlices": 3,
    "StationName": "MRC35450",
    "TaskName": "cardgame",
    "TotalReadoutTime": 0.0314901,
    "TxRefAmp": 414.334,
    "dataset": "<unset>",
    "dcmmeta_affine": [
      [
        -3.0,
        0.0,
        0.0,
        100.6440658569336
      ],
      [
        0.0,
        2.9776384830474854,
        -0.3656080365180969,
        -65.42324829101562
      ],
      [
        0.0,
        0.3656080365180969,
        2.9776384830474854,
        -66.88560485839844
      ],
      [
        0.0,
        0.0,
        0.0,
        1.0
      ]
    ],
    "dcmmeta_reorient_transform": [
      [
        0.0,
        -1.0,
        0.0,
        67.0
      ],
      [
        1.0,
        0.0,
        0.0,
        0.0
      ],
      [
        0.0,
        0.0,
        1.0,
        0.0
      ],
      [
        0.0,
        0.0,
        0.0,
        1.0
      ]
    ],
    "dcmmeta_shape": [
      68,
      68,
      36,
      258
    ],
    "dcmmeta_slice_dim": 2,
    "dcmmeta_version": 0.6,
    "global": {
      "const": {
        "AcquisitionMatrix": [
          68,
          0,
          0,
          68
        ],
        "AngioFlag": "N",
        "BitsAllocated": 16,
        "BitsStored": 12,
        "Columns": 408,
        "EchoNumbers": 1,
        "EchoTime": 23.0,
        "EchoTrainLength": 1,
        "FlipAngle": 76.0,
        "HighBit": 11,
        "ImageOrientationPatient": [
          1.0,
          0.0,
          0.0,
          0.0,
          0.99254615167353,
          -0.1218693431428
        ],
        "ImagePositionPatient": [
          -610.64406776428,
          -640.27706242064,
          19.763500436267
        ],
        "ImageType": [
          "ORIGINAL",
          "PRIMARY",
          "M",
          "ND",
          "MOSAIC"
        ],
        "ImagedNucleus": "1H",
        "ImagingFrequency": 123.218438,
        "InPlanePhaseEncodingDirection": "COL",
        "MRAcquisitionType": "2D",
        "MagneticFieldStrength": 3.0,
        "Manufacturer": "SIEMENS",
        "ManufacturerModelName": "TrioTim",
        "Modality": "MR",
        "NumberOfAverages": 1.0,
        "NumberOfPhaseEncodingSteps": 68,
        "PercentPhaseFieldOfView": 100.0,
        "PercentSampling": 100.0,
        "PerformedProcedureStepStartTime": "110911.937000",
        "PhotometricInterpretation": "MONOCHROME2",
        "PixelBandwidth": 2451.0,
        "PixelRepresentation": 0,
        "PixelSpacing": [
          3.0,
          3.0
        ],
        "ProtocolName": "ep2d_bold_CardGameEPI_1",
        "RepetitionTime": 2000.0,
        "Rows": 408,
        "SAR": 0.18694499267353,
        "SamplesPerPixel": 1,
        "ScanOptions": "FS",
        "ScanningSequence": "EP",
        "SequenceName": "*epfid2d1_68",
        "SequenceVariant": "SK",
        "SeriesDescription": "ep2d_bold_CardGameEPI_1",
        "SeriesNumber": 6,
        "SeriesTime": "113101.578000",
        "SliceLocation": -58.413958725002,
        "SliceThickness": 2.5,
        "SmallestImagePixelValue": 0,
        "SoftwareVersions": "syngo MR B19",
        "SpacingBetweenSlices": 3.000000003625,
        "SpecificCharacterSet": "ISO_IR 100",
        "StudyID": "1",
        "StudyTime": "110911.828000",
        "TransmitCoilName": "Body",
        "VariableFlipAngleFlag": "N",
        "WindowCenterWidthExplanation": "Algo1",
        "dBdt": 0.0
      },
      "slices": {}
    },
    "modality": "bold",
    "run_id": 1,
    "subject_id": "211",
    "task_id": "cardgame",
    "time": {
      "samples": {
        "AcquisitionNumber": [
          1,
          2,
          3,
          4,
          5,
          6,
          7,
          8,
          9,
          10,
          11,
          12,
          13,
          14,
          15,
          16,
          17,
          18,
          19,
          20,
          21,
          22,
          23,
          24,
          25,
          26,
          27,
          28,
          29,
          30,
          31,
          32,
          33,
          34,
          35,
          36,
          37,
          38,
          39,
          40,
          41,
          42,
          43,
          44,
          45,
          46,
          47,
          48,
          49,
          50,
          51,
          52,
          53,
          54,
          55,
          56,
          57,
          58,
          59,
          60,
          61,
          62,
          63,
          64,
          65,
          66,
          67,
          68,
          69,
          70,
          71,
          72,
          73,
          74,
          75,
          76,
          77,
          78,
          79,
          80,
          81,
          82,
          83,
          84,
          85,
          86,
          87,
          88,
          89,
          90,
          91,
          92,
          93,
          94,
          95,
          96,
          97,
          98,
          99,
          100,
          101,
          102,
          103,
          104,
          105,
          106,
          107,
          108,
          109,
          110,
          111,
          112,
          113,
          114,
          115,
          116,
          117,
          118,
          119,
          120,
          121,
          122,
          123,
          124,
          125,
          126,
          127,
          128,
          129,
          130,
          131,
          132,
          133,
          134,
          135,
          136,
          137,
          138,
          139,
          140,
          141,
          142,
          143,
          144,
          145,
          146,
          147,
          148,
          149,
          150,
          151,
          152,
          153,
          154,
          155,
          156,
          157,
          158,
          159,
          160,
          161,
          162,
          163,
          164,
          165,
          166,
          167,
          168,
          169,
          170,
          171,
          172,
          173,
          174,
          175,
          176,
          177,
          178,
          179,
          180,
          181,
          182,
          183,
          184,
          185,
          186,
          187,
          188,
          189,
          190,
          191,
          192,
          193,
          194,
          195,
          196,
          197,
          198,
          199,
          200,
          201,
          202,
          203,
          204,
          205,
          206,
          207,
          208,
          209,
          210,
          211,
          212,
          213,
          214,
          215,
          216,
          217,
          218,
          219,
          220,
          221,
          222,
          223,
          224,
          225,
          226,
          227,
          228,
          229,
          230,
          231,
          232,
          233,
          234,
          235,
          236,
          237,
          238,
          239,
          240,
          241,
          242,
          243,
          244,
          245,
          246,
          247,
          248,
          249,
          250,
          251,
          252,
          253,
          254,
          255,
          256,
          257,
          258
        ],
        "AcquisitionTime": [
          "113049.917500",
          "113051.925000",
          "113053.932500",
          "113055.942500",
          "113057.950000",
          "113059.957500",
          "113101.965000",
          "113103.975000",
          "113105.982500",
          "113107.990000",
          "113109.997500",
          "113112.005000",
          "113114.015000",
          "113116.022500",
          "113118.030000",
          "113120.037500",
          "113122.045000",
          "113124.055000",
          "113126.062500",
          "113128.070000",
          "113130.077500",
          "113132.087500",
          "113134.095000",
          "113136.102500",
          "113138.110000",
          "113140.117500",
          "113142.127500",
          "113144.135000",
          "113146.142500",
          "113148.150000",
          "113150.157500",
          "113152.167500",
          "113154.175000",
          "113156.182500",
          "113158.190000",
          "113200.200000",
          "113202.207500",
          "113204.215000",
          "113206.222500",
          "113208.230000",
          "113210.240000",
          "113212.247500",
          "113214.255000",
          "113216.262500",
          "113218.270000",
          "113220.280000",
          "113222.287500",
          "113224.295000",
          "113226.302500",
          "113228.310000",
          "113230.320000",
          "113232.327500",
          "113234.335000",
          "113236.342500",
          "113238.352500",
          "113240.360000",
          "113242.367500",
          "113244.375000",
          "113246.382500",
          "113248.392500",
          "113250.400000",
          "113252.407500",
          "113254.415000",
          "113256.422500",
          "113258.432500",
          "113300.440000",
          "113302.447500",
          "113304.455000",
          "113306.465000",
          "113308.472500",
          "113310.480000",
          "113312.487500",
          "113314.495000",
          "113316.505000",
          "113318.512500",
          "113320.520000",
          "113322.527500",
          "113324.535000",
          "113326.545000",
          "113328.552500",
          "113330.560000",
          "113332.567500",
          "113334.577500",
          "113336.585000",
          "113338.592500",
          "113340.600000",
          "113342.607500",
          "113344.617500",
          "113346.625000",
          "113348.632500",
          "113350.640000",
          "113352.647500",
          "113354.657500",
          "113356.665000",
          "113358.672500",
          "113400.680000",
          "113402.687500",
          "113404.697500",
          "113406.705000",
          "113408.712500",
          "113410.720000",
          "113412.730000",
          "113414.737500",
          "113416.745000",
          "113418.752500",
          "113420.760000",
          "113422.770000",
          "113424.777500",
          "113426.785000",
          "113428.792500",
          "113430.800000",
          "113432.810000",
          "113434.817500",
          "113436.825000",
          "113438.832500",
          "113440.842500",
          "113442.850000",
          "113444.857500",
          "113446.865000",
          "113448.872500",
          "113450.882500",
          "113452.890000",
          "113454.897500",
          "113456.905000",
          "113458.912500",
          "113500.922500",
          "113502.930000",
          "113504.937500",
          "113506.945000",
          "113508.955000",
          "113510.962500",
          "113512.970000",
          "113514.977500",
          "113516.985000",
          "113518.995000",
          "113521.002500",
          "113523.010000",
          "113525.017500",
          "113527.025000",
          "113529.035000",
          "113531.042500",
          "113533.050000",
          "113535.057500",
          "113537.065000",
          "113539.075000",
          "113541.082500",
          "113543.090000",
          "113545.097500",
          "113547.107500",
          "113549.115000",
          "113551.122500",
          "113553.130000",
          "113555.137500",
          "113557.147500",
          "113559.155000",
          "113601.162500",
          "113603.170000",
          "113605.177500",
          "113607.187500",
          "113609.195000",
          "113611.202500",
          "113613.210000",
          "113615.220000",
          "113617.227500",
          "113619.235000",
          "113621.242500",
          "113623.250000",
          "113625.260000",
          "113627.267500",
          "113629.275000",
          "113631.282500",
          "113633.290000",
          "113635.300000",
          "113637.307500",
          "113639.315000",
          "113641.322500",
          "113643.332500",
          "113645.340000",
          "113647.347500",
          "113649.355000",
          "113651.362500",
          "113653.372500",
          "113655.380000",
          "113657.387500",
          "113659.395000",
          "113701.402500",
          "113703.412500",
          "113705.420000",
          "113707.427500",
          "113709.435000",
          "113711.442500",
          "113713.452500",
          "113715.460000",
          "113717.467500",
          "113719.475000",
          "113721.485000",
          "113723.492500",
          "113725.500000",
          "113727.507500",
          "113729.515000",
          "113731.525000",
          "113733.532500",
          "113735.540000",
          "113737.547500",
          "113739.555000",
          "113741.565000",
          "113743.572500",
          "113745.580000",
          "113747.587500",
          "113749.597500",
          "113751.605000",
          "113753.612500",
          "113755.620000",
          "113757.627500",
          "113759.637500",
          "113801.645000",
          "113803.652500",
          "113805.660000",
          "113807.667500",
          "113809.677500",
          "113811.685000",
          "113813.692500",
          "113815.700000",
          "113817.710000",
          "113819.717500",
          "113821.725000",
          "113823.732500",
          "113825.740000",
          "113827.750000",
          "113829.757500",
          "113831.765000",
          "113833.772500",
          "113835.780000",
          "113837.790000",
          "113839.797500",
          "113841.805000",
          "113843.812500",
          "113845.822500",
          "113847.830000",
          "113849.837500",
          "113851.845000",
          "113853.852500",
          "113855.862500",
          "113857.870000",
          "113859.877500",
          "113901.885000",
          "113903.892500",
          "113905.902500",
          "113907.910000",
          "113909.917500",
          "113911.925000",
          "113913.932500",
          "113915.942500",
          "113917.950000",
          "113919.957500",
          "113921.965000",
          "113923.975000",
          "113925.982500"
        ],
        "ContentTime": [
          "113101.593000",
          "113101.593000",
          "113101.593000",
          "113101.593000",
          "113101.593000",
          "113101.593000",
          "113101.609000",
          "113141.578000",
          "113141.578000",
          "113141.578000",
          "113141.578000",
          "113141.578000",
          "113141.578000",
          "113141.578000",
          "113141.593000",
          "113141.593000",
          "113141.593000",
          "113141.593000",
          "113141.593000",
          "113141.593000",
          "113141.593000",
          "113141.593000",
          "113141.609000",
          "113141.609000",
          "113141.609000",
          "113141.609000",
          "113141.609000",
          "113221.578000",
          "113221.578000",
          "113221.578000",
          "113221.578000",
          "113221.578000",
          "113221.578000",
          "113221.593000",
          "113221.593000",
          "113221.593000",
          "113221.593000",
          "113221.593000",
          "113221.593000",
          "113221.593000",
          "113221.593000",
          "113221.609000",
          "113221.609000",
          "113221.609000",
          "113221.609000",
          "113221.609000",
          "113221.609000",
          "113301.578000",
          "113301.578000",
          "113301.578000",
          "113301.578000",
          "113301.578000",
          "113301.578000",
          "113301.593000",
          "113301.593000",
          "113301.593000",
          "113301.593000",
          "113301.593000",
          "113301.593000",
          "113301.593000",
          "113301.593000",
          "113301.609000",
          "113301.609000",
          "113301.609000",
          "113301.609000",
          "113301.609000",
          "113301.609000",
          "113341.578000",
          "113341.578000",
          "113341.578000",
          "113341.578000",
          "113341.578000",
          "113341.578000",
          "113341.593000",
          "113341.593000",
          "113341.593000",
          "113341.593000",
          "113341.593000",
          "113341.593000",
          "113341.593000",
          "113341.609000",
          "113341.609000",
          "113341.609000",
          "113341.609000",
          "113341.609000",
          "113341.609000",
          "113341.609000",
          "113421.578000",
          "113421.578000",
          "113421.578000",
          "113421.578000",
          "113421.578000",
          "113421.578000",
          "113421.593000",
          "113421.593000",
          "113421.593000",
          "113421.593000",
          "113421.593000",
          "113421.593000",
          "113421.593000",
          "113421.593000",
          "113421.609000",
          "113421.609000",
          "113421.609000",
          "113421.609000",
          "113421.609000",
          "113421.609000",
          "113501.578000",
          "113501.578000",
          "113501.578000",
          "113501.578000",
          "113501.578000",
          "113501.578000",
          "113501.593000",
          "113501.593000",
          "113501.593000",
          "113501.593000",
          "113501.593000",
          "113501.593000",
          "113501.593000",
          "113501.593000",
          "113501.609000",
          "113501.609000",
          "113501.609000",
          "113501.609000",
          "113501.609000",
          "113501.609000",
          "113541.578000",
          "113541.578000",
          "113541.578000",
          "113541.578000",
          "113541.578000",
          "113541.578000",
          "113541.578000",
          "113541.593000",
          "113541.593000",
          "113541.593000",
          "113541.593000",
          "113541.593000",
          "113541.593000",
          "113541.593000",
          "113541.609000",
          "113541.609000",
          "113541.609000",
          "113541.609000",
          "113541.609000",
          "113541.609000",
          "113621.578000",
          "113621.578000",
          "113621.578000",
          "113621.578000",
          "113621.578000",
          "113621.578000",
          "113621.593000",
          "113621.593000",
          "113621.593000",
          "113621.593000",
          "113621.593000",
          "113621.593000",
          "113621.593000",
          "113621.609000",
          "113621.609000",
          "113621.609000",
          "113621.609000",
          "113621.609000",
          "113621.609000",
          "113621.609000",
          "113701.578000",
          "113701.578000",
          "113701.578000",
          "113701.578000",
          "113701.578000",
          "113701.578000",
          "113701.593000",
          "113701.593000",
          "113701.593000",
          "113701.593000",
          "113701.593000",
          "113701.593000",
          "113701.593000",
          "113701.593000",
          "113701.609000",
          "113701.609000",
          "113701.609000",
          "113701.609000",
          "113701.609000",
          "113701.609000",
          "113721.578000",
          "113721.578000",
          "113721.578000",
          "113721.578000",
          "113721.578000",
          "113721.578000",
          "113721.593000",
          "113721.593000",
          "113721.593000",
          "113721.593000",
          "113801.578000",
          "113801.578000",
          "113801.578000",
          "113801.578000",
          "113801.578000",
          "113801.578000",
          "113801.593000",
          "113801.593000",
          "113801.593000",
          "113801.593000",
          "113801.593000",
          "113801.593000",
          "113801.593000",
          "113801.593000",
          "113801.609000",
          "113801.609000",
          "113801.609000",
          "113801.609000",
          "113801.609000",
          "113801.609000",
          "113841.578000",
          "113841.578000",
          "113841.578000",
          "113841.578000",
          "113841.578000",
          "113841.578000",
          "113841.593000",
          "113841.593000",
          "113841.593000",
          "113841.593000",
          "113841.593000",
          "113841.593000",
          "113841.593000",
          "113841.593000",
          "113841.609000",
          "113841.609000",
          "113841.609000",
          "113841.609000",
          "113841.609000",
          "113841.609000",
          "113921.578000",
          "113921.578000",
          "113921.578000",
          "113921.578000",
          "113921.578000",
          "113921.578000",
          "113921.593000",
          "113921.593000",
          "113921.593000",
          "113921.593000",
          "113921.593000",
          "113921.593000",
          "113921.593000",
          "113921.593000",
          "113921.609000",
          "113921.609000",
          "113921.609000",
          "113921.609000",
          "113921.609000",
          "113921.609000",
          "113923.375000"
        ],
        "InstanceCreationTime": [
          "113101.593000",
          "113101.593000",
          "113101.593000",
          "113101.593000",
          "113101.593000",
          "113101.593000",
          "113101.609000",
          "113141.578000",
          "113141.578000",
          "113141.578000",
          "113141.578000",
          "113141.578000",
          "113141.578000",
          "113141.578000",
          "113141.593000",
          "113141.593000",
          "113141.593000",
          "113141.593000",
          "113141.593000",
          "113141.593000",
          "113141.593000",
          "113141.593000",
          "113141.609000",
          "113141.609000",
          "113141.609000",
          "113141.609000",
          "113141.609000",
          "113221.578000",
          "113221.578000",
          "113221.578000",
          "113221.578000",
          "113221.578000",
          "113221.578000",
          "113221.593000",
          "113221.593000",
          "113221.593000",
          "113221.593000",
          "113221.593000",
          "113221.593000",
          "113221.593000",
          "113221.593000",
          "113221.609000",
          "113221.609000",
          "113221.609000",
          "113221.609000",
          "113221.609000",
          "113221.609000",
          "113301.578000",
          "113301.578000",
          "113301.578000",
          "113301.578000",
          "113301.578000",
          "113301.578000",
          "113301.593000",
          "113301.593000",
          "113301.593000",
          "113301.593000",
          "113301.593000",
          "113301.593000",
          "113301.593000",
          "113301.593000",
          "113301.609000",
          "113301.609000",
          "113301.609000",
          "113301.609000",
          "113301.609000",
          "113301.609000",
          "113341.578000",
          "113341.578000",
          "113341.578000",
          "113341.578000",
          "113341.578000",
          "113341.578000",
          "113341.593000",
          "113341.593000",
          "113341.593000",
          "113341.593000",
          "113341.593000",
          "113341.593000",
          "113341.593000",
          "113341.609000",
          "113341.609000",
          "113341.609000",
          "113341.609000",
          "113341.609000",
          "113341.609000",
          "113341.609000",
          "113421.578000",
          "113421.578000",
          "113421.578000",
          "113421.578000",
          "113421.578000",
          "113421.578000",
          "113421.593000",
          "113421.593000",
          "113421.593000",
          "113421.593000",
          "113421.593000",
          "113421.593000",
          "113421.593000",
          "113421.593000",
          "113421.609000",
          "113421.609000",
          "113421.609000",
          "113421.609000",
          "113421.609000",
          "113421.609000",
          "113501.578000",
          "113501.578000",
          "113501.578000",
          "113501.578000",
          "113501.578000",
          "113501.578000",
          "113501.593000",
          "113501.593000",
          "113501.593000",
          "113501.593000",
          "113501.593000",
          "113501.593000",
          "113501.593000",
          "113501.593000",
          "113501.609000",
          "113501.609000",
          "113501.609000",
          "113501.609000",
          "113501.609000",
          "113501.609000",
          "113541.578000",
          "113541.578000",
          "113541.578000",
          "113541.578000",
          "113541.578000",
          "113541.578000",
          "113541.578000",
          "113541.593000",
          "113541.593000",
          "113541.593000",
          "113541.593000",
          "113541.593000",
          "113541.593000",
          "113541.593000",
          "113541.609000",
          "113541.609000",
          "113541.609000",
          "113541.609000",
          "113541.609000",
          "113541.609000",
          "113621.578000",
          "113621.578000",
          "113621.578000",
          "113621.578000",
          "113621.578000",
          "113621.578000",
          "113621.593000",
          "113621.593000",
          "113621.593000",
          "113621.593000",
          "113621.593000",
          "113621.593000",
          "113621.593000",
          "113621.609000",
          "113621.609000",
          "113621.609000",
          "113621.609000",
          "113621.609000",
          "113621.609000",
          "113621.609000",
          "113701.578000",
          "113701.578000",
          "113701.578000",
          "113701.578000",
          "113701.578000",
          "113701.578000",
          "113701.593000",
          "113701.593000",
          "113701.593000",
          "113701.593000",
          "113701.593000",
          "113701.593000",
          "113701.593000",
          "113701.593000",
          "113701.609000",
          "113701.609000",
          "113701.609000",
          "113701.609000",
          "113701.609000",
          "113701.609000",
          "113721.578000",
          "113721.578000",
          "113721.578000",
          "113721.578000",
          "113721.578000",
          "113721.578000",
          "113721.593000",
          "113721.593000",
          "113721.593000",
          "113721.593000",
          "113801.578000",
          "113801.578000",
          "113801.578000",
          "113801.578000",
          "113801.578000",
          "113801.578000",
          "113801.593000",
          "113801.593000",
          "113801.593000",
          "113801.593000",
          "113801.593000",
          "113801.593000",
          "113801.593000",
          "113801.593000",
          "113801.609000",
          "113801.609000",
          "113801.609000",
          "113801.609000",
          "113801.609000",
          "113801.609000",
          "113841.578000",
          "113841.578000",
          "113841.578000",
          "113841.578000",
          "113841.578000",
          "113841.578000",
          "113841.593000",
