{
  "aor": 0.0005009166666666667,
  "aqi": 0.007651264916666666,
  "bids_meta": {
    "AcquisitionMatrixPE": 68,
    "AcquisitionNumber": 1,
    "AcquisitionTime": "11:40:50.012500",
    "BandwidthPerPixelPhaseEncode": 31.289,
    "BaseResolution": 68,
    "CogAtlasID": "TODO",
    "CoilString": "C:HEA;HEP",
    "ConversionSoftware": "dcm2niix",
    "ConversionSoftwareVersion": "v1.0.20190902",
    "DerivedVendorReportedEchoSpacing": 0.000470002,
    "DeviceSerialNumber": "35450",
    "DwellTime": 3e-06,
    "EchoTime": 0.023,
    "EffectiveEchoSpacing": 0.000470002,
    "FlipAngle": 76,
    "ImageOrientationPatientDICOM": [
      1,
      0,
      0,
      0,
      0.992546,
      -0.121869
    ],
    "ImageType": [
      "ORIGINAL",
      "PRIMARY",
      "M",
      "ND",
      "MOSAIC"
    ],
    "ImagingFrequency": 123.218,
    "InPlanePhaseEncodingDirectionDICOM": "COL",
    "InstitutionAddress": "Univeristy_Ave._197_Newark_North_East_US_07102-1814",
    "InstitutionName": "RUBIC",
    "InstitutionalDepartmentName": "Department",
    "MRAcquisitionType": "2D",
    "MagneticFieldStrength": 3,
    "Manufacturer": "Siemens",
    "ManufacturersModelName": "TrioTim",
    "Modality": "MR",
    "PartialFourier": 1,
    "PatientPosition": "HFS",
    "PercentPhaseFOV": 100,
    "PhaseEncodingDirection": "j-",
    "PhaseEncodingSteps": 68,
    "PhaseResolution": 1,
    "PixelBandwidth": 2451,
    "ProcedureStepDescription": "Krekelberg_David",
    "ProtocolName": "ep2d_bold_RestEPI_1",
    "PulseSequenceDetails": "%SiemensSeq%_ep2d_bold",
    "ReceiveCoilName": "HeadMatrix",
    "ReconMatrixPE": 68,
    "RepetitionTime": 2,
    "SAR": 0.186905,
    "ScanOptions": "FS",
    "ScanningSequence": "EP",
    "SequenceName": "_epfid2d1_68",
    "SequenceVariant": "SK",
    "SeriesDescription": "ep2d_bold_RestEPI_1",
    "SeriesNumber": 7,
    "ShimSetting": [
      1960,
      -584,
      -7540,
      678,
      -65,
      -338,
      -370,
      -115
    ],
    "SliceThickness": 2.5,
    "SliceTiming": [
      1.9525,
      1.8975,
      1.84,
      1.785,
      1.73,
      1.6725,
      1.6175,
      1.5625,
      1.505,
      1.45,
      1.395,
      1.3375,
      1.2825,
      1.2275,
      1.1725,
      1.115,
      1.06,
      1.005,
      0.9475,
      0.8925,
      0.8375,
      0.78,
      0.725,
      0.67,
      0.6125,
      0.5575,
      0.5025,
      0.4475,
      0.39,
      0.335,
      0.28,
      0.2225,
      0.1675,
      0.1125,
      0.055,
      0
    ],
    "SoftwareVersions": "syngo_MR_B19",
    "SpacingBetweenSlices": 3,
    "StationName": "MRC35450",
    "TaskName": "rest",
    "TotalReadoutTime": 0.0314901,
    "TxRefAmp": 414.334,
    "dataset": "<unset>",
    "dcmmeta_affine": [
      [
        -3.0,
        0.0,
        0.0,
        100.6440658569336
      ],
      [
        0.0,
        2.9776384830474854,
        -0.3656080365180969,
        -65.42324829101562
      ],
      [
        0.0,
        0.3656080365180969,
        2.9776384830474854,
        -66.88560485839844
      ],
      [
        0.0,
        0.0,
        0.0,
        1.0
      ]
    ],
    "dcmmeta_reorient_transform": [
      [
        0.0,
        -1.0,
        0.0,
        67.0
      ],
      [
        1.0,
        0.0,
        0.0,
        0.0
      ],
      [
        0.0,
        0.0,
        1.0,
        0.0
      ],
      [
        0.0,
        0.0,
        0.0,
        1.0
      ]
    ],
    "dcmmeta_shape": [
      68,
      68,
      36,
      240
    ],
    "dcmmeta_slice_dim": 2,
    "dcmmeta_version": 0.6,
    "global": {
      "const": {
        "AcquisitionMatrix": [
          68,
          0,
          0,
          68
        ],
        "AngioFlag": "N",
        "BitsAllocated": 16,
        "BitsStored": 12,
        "Columns": 408,
        "EchoNumbers": 1,
        "EchoTime": 23.0,
        "EchoTrainLength": 1,
        "FlipAngle": 76.0,
        "HighBit": 11,
        "ImageOrientationPatient": [
          1.0,
          0.0,
          0.0,
          0.0,
          0.99254615167353,
          -0.1218693431428
        ],
        "ImagePositionPatient": [
          -610.64406776428,
          -640.27706242064,
          19.763500436267
        ],
        "ImageType": [
          "ORIGINAL",
          "PRIMARY",
          "M",
          "ND",
          "MOSAIC"
        ],
        "ImagedNucleus": "1H",
        "ImagingFrequency": 123.218461,
        "InPlanePhaseEncodingDirection": "COL",
        "MRAcquisitionType": "2D",
        "MagneticFieldStrength": 3.0,
        "Manufacturer": "SIEMENS",
        "ManufacturerModelName": "TrioTim",
        "Modality": "MR",
        "NumberOfAverages": 1.0,
        "NumberOfPhaseEncodingSteps": 68,
        "PercentPhaseFieldOfView": 100.0,
        "PercentSampling": 100.0,
        "PerformedProcedureStepStartTime": "110911.937000",
        "PhotometricInterpretation": "MONOCHROME2",
        "PixelBandwidth": 2451.0,
        "PixelRepresentation": 0,
        "PixelSpacing": [
          3.0,
          3.0
        ],
        "ProtocolName": "ep2d_bold_RestEPI_1",
        "RepetitionTime": 2000.0,
        "Rows": 408,
        "SAR": 0.18690500602374,
        "SamplesPerPixel": 1,
        "ScanOptions": "FS",
        "ScanningSequence": "EP",
        "SequenceName": "*epfid2d1_68",
        "SequenceVariant": "SK",
        "SeriesDescription": "ep2d_bold_RestEPI_1",
        "SeriesNumber": 7,
        "SeriesTime": "114140.156000",
        "SliceLocation": -58.413958725002,
        "SliceThickness": 2.5,
        "SmallestImagePixelValue": 0,
        "SoftwareVersions": "syngo MR B19",
        "SpacingBetweenSlices": 3.000000003625,
        "SpecificCharacterSet": "ISO_IR 100",
        "StudyID": "1",
        "StudyTime": "110911.828000",
        "TransmitCoilName": "Body",
        "VariableFlipAngleFlag": "N",
        "WindowCenterWidthExplanation": "Algo1",
        "dBdt": 0.0
      },
      "slices": {}
    },
    "modality": "bold",
    "run_id": 1,
    "subject_id": "211",
    "task_id": "rest",
    "time": {
      "samples": {
        "AcquisitionNumber": [
          1,
          2,
          3,
          4,
          5,
          6,
          7,
          8,
          9,
          10,
          11,
          12,
          13,
          14,
          15,
          16,
          17,
          18,
          19,
          20,
          21,
          22,
          23,
          24,
          25,
          26,
          27,
          28,
          29,
          30,
          31,
          32,
          33,
          34,
          35,
          36,
          37,
          38,
          39,
          40,
          41,
          42,
          43,
          44,
          45,
          46,
          47,
          48,
          49,
          50,
          51,
          52,
          53,
          54,
          55,
          56,
          57,
          58,
          59,
          60,
          61,
          62,
          63,
          64,
          65,
          66,
          67,
          68,
          69,
          70,
          71,
          72,
          73,
          74,
          75,
          76,
          77,
          78,
          79,
          80,
          81,
          82,
          83,
          84,
          85,
          86,
          87,
          88,
          89,
          90,
          91,
          92,
          93,
          94,
          95,
          96,
          97,
          98,
          99,
          100,
          101,
          102,
          103,
          104,
          105,
          106,
          107,
          108,
          109,
          110,
          111,
          112,
          113,
          114,
          115,
          116,
          117,
          118,
          119,
          120,
          121,
          122,
          123,
          124,
          125,
          126,
          127,
          128,
          129,
          130,
          131,
          132,
          133,
          134,
          135,
          136,
          137,
          138,
          139,
          140,
          141,
          142,
          143,
          144,
          145,
          146,
          147,
          148,
          149,
          150,
          151,
          152,
          153,
          154,
          155,
          156,
          157,
          158,
          159,
          160,
          161,
          162,
          163,
          164,
          165,
          166,
          167,
          168,
          169,
          170,
          171,
          172,
          173,
          174,
          175,
          176,
          177,
          178,
          179,
          180,
          181,
          182,
          183,
          184,
          185,
          186,
          187,
          188,
          189,
          190,
          191,
          192,
          193,
          194,
          195,
          196,
          197,
          198,
          199,
          200,
          201,
          202,
          203,
          204,
          205,
          206,
          207,
          208,
          209,
          210,
          211,
          212,
          213,
          214,
          215,
          216,
          217,
          218,
          219,
          220,
          221,
          222,
          223,
          224,
          225,
          226,
          227,
          228,
          229,
          230,
          231,
          232,
          233,
          234,
          235,
          236,
          237,
          238,
          239,
          240
        ],
        "AcquisitionTime": [
          "114050.012500",
          "114052.020000",
          "114054.027500",
          "114056.035000",
          "114058.045000",
          "114100.052500",
          "114102.060000",
          "114104.067500",
          "114106.077500",
          "114108.085000",
          "114110.092500",
          "114112.100000",
          "114114.107500",
          "114116.117500",
          "114118.125000",
          "114120.132500",
          "114122.140000",
          "114124.147500",
          "114126.157500",
          "114128.165000",
          "114130.172500",
          "114132.180000",
          "114134.190000",
          "114136.197500",
          "114138.205000",
          "114140.212500",
          "114142.220000",
          "114144.230000",
          "114146.237500",
          "114148.245000",
          "114150.252500",
          "114152.260000",
          "114154.270000",
          "114156.277500",
          "114158.285000",
          "114200.292500",
          "114202.300000",
          "114204.310000",
          "114206.317500",
          "114208.325000",
          "114210.332500",
          "114212.342500",
          "114214.350000",
          "114216.357500",
          "114218.365000",
          "114220.372500",
          "114222.382500",
          "114224.390000",
          "114226.397500",
          "114228.405000",
          "114230.412500",
          "114232.422500",
          "114234.430000",
          "114236.437500",
          "114238.445000",
          "114240.455000",
          "114242.462500",
          "114244.470000",
          "114246.477500",
          "114248.485000",
          "114250.495000",
          "114252.502500",
          "114254.510000",
          "114256.517500",
          "114258.525000",
          "114300.535000",
          "114302.542500",
          "114304.550000",
          "114306.557500",
          "114308.567500",
          "114310.575000",
          "114312.582500",
          "114314.590000",
          "114316.597500",
          "114318.607500",
          "114320.615000",
          "114322.622500",
          "114324.630000",
          "114326.637500",
          "114328.647500",
          "114330.655000",
          "114332.662500",
          "114334.670000",
          "114336.677500",
          "114338.687500",
          "114340.695000",
          "114342.702500",
          "114344.710000",
          "114346.720000",
          "114348.727500",
          "114350.735000",
          "114352.742500",
          "114354.750000",
          "114356.760000",
          "114358.767500",
          "114400.775000",
          "114402.782500",
          "114404.790000",
          "114406.800000",
          "114408.807500",
          "114410.815000",
          "114412.822500",
          "114414.832500",
          "114416.840000",
          "114418.847500",
          "114420.855000",
          "114422.862500",
          "114424.872500",
          "114426.880000",
          "114428.887500",
          "114430.895000",
          "114432.902500",
          "114434.912500",
          "114436.920000",
          "114438.927500",
          "114440.935000",
          "114442.945000",
          "114444.952500",
          "114446.960000",
          "114448.967500",
          "114450.975000",
          "114452.985000",
          "114454.992500",
          "114457.000000",
          "114459.007500",
          "114501.015000",
          "114503.025000",
          "114505.032500",
          "114507.040000",
          "114509.047500",
          "114511.055000",
          "114513.065000",
          "114515.072500",
          "114517.080000",
          "114519.087500",
          "114521.097500",
          "114523.105000",
          "114525.112500",
          "114527.120000",
          "114529.127500",
          "114531.137500",
          "114533.145000",
          "114535.152500",
          "114537.160000",
          "114539.167500",
          "114541.177500",
          "114543.185000",
          "114545.192500",
          "114547.200000",
          "114549.210000",
          "114551.217500",
          "114553.225000",
          "114555.232500",
          "114557.240000",
          "114559.250000",
          "114601.257500",
          "114603.265000",
          "114605.272500",
          "114607.280000",
          "114609.290000",
          "114611.297500",
          "114613.305000",
          "114615.312500",
          "114617.322500",
          "114619.330000",
          "114621.337500",
          "114623.345000",
          "114625.352500",
          "114627.362500",
          "114629.370000",
          "114631.377500",
          "114633.385000",
          "114635.392500",
          "114637.402500",
          "114639.410000",
          "114641.417500",
          "114643.425000",
          "114645.432500",
          "114647.442500",
          "114649.450000",
          "114651.457500",
          "114653.465000",
          "114655.475000",
          "114657.482500",
          "114659.490000",
          "114701.497500",
          "114703.505000",
          "114705.515000",
          "114707.522500",
          "114709.530000",
          "114711.537500",
          "114713.545000",
          "114715.555000",
          "114717.562500",
          "114719.570000",
          "114721.577500",
          "114723.587500",
          "114725.595000",
          "114727.602500",
          "114729.610000",
          "114731.617500",
          "114733.627500",
          "114735.635000",
          "114737.642500",
          "114739.650000",
          "114741.657500",
          "114743.667500",
          "114745.675000",
          "114747.682500",
          "114749.690000",
          "114751.700000",
          "114753.707500",
          "114755.715000",
          "114757.722500",
          "114759.730000",
          "114801.740000",
          "114803.747500",
          "114805.755000",
          "114807.762500",
          "114809.770000",
          "114811.780000",
          "114813.787500",
          "114815.795000",
          "114817.802500",
          "114819.810000",
          "114821.820000",
          "114823.827500",
          "114825.835000",
          "114827.842500",
          "114829.852500",
          "114831.860000",
          "114833.867500",
          "114835.875000",
          "114837.882500",
          "114839.892500",
          "114841.900000",
          "114843.907500",
          "114845.915000",
          "114847.922500",
          "114849.932500"
        ],
        "ContentTime": [
          "114140.156000",
          "114140.156000",
          "114140.156000",
          "114140.156000",
          "114140.171000",
          "114140.171000",
          "114140.171000",
          "114140.171000",
          "114140.171000",
          "114140.171000",
          "114140.171000",
          "114140.187000",
          "114140.187000",
          "114140.187000",
          "114140.187000",
          "114140.187000",
          "114140.187000",
          "114140.187000",
          "114140.203000",
          "114140.203000",
          "114140.203000",
          "114140.203000",
          "114140.203000",
          "114140.203000",
          "114140.203000",
          "114220.156000",
          "114220.156000",
          "114220.156000",
          "114220.156000",
          "114220.156000",
          "114220.156000",
          "114220.171000",
          "114220.171000",
          "114220.171000",
          "114220.171000",
          "114220.171000",
          "114220.171000",
          "114220.171000",
          "114220.171000",
          "114220.187000",
          "114220.187000",
          "114220.187000",
          "114220.187000",
          "114220.187000",
          "114220.187000",
          "114300.156000",
          "114300.156000",
          "114300.156000",
          "114300.156000",
          "114300.156000",
          "114300.156000",
          "114300.156000",
          "114300.171000",
          "114300.171000",
          "114300.171000",
          "114300.171000",
          "114300.171000",
          "114300.171000",
          "114300.171000",
          "114300.187000",
          "114300.187000",
          "114300.187000",
          "114300.187000",
          "114300.187000",
          "114300.187000",
          "114340.156000",
          "114340.156000",
          "114340.156000",
          "114340.156000",
          "114340.156000",
          "114340.156000",
          "114340.156000",
          "114340.171000",
          "114340.171000",
          "114340.171000",
          "114340.171000",
          "114340.171000",
          "114340.171000",
          "114340.171000",
          "114340.187000",
          "114340.187000",
          "114340.187000",
          "114340.187000",
          "114340.187000",
          "114340.187000",
          "114420.156000",
          "114420.156000",
          "114420.156000",
          "114420.156000",
          "114420.156000",
          "114420.156000",
          "114420.171000",
          "114420.171000",
          "114420.171000",
          "114420.171000",
          "114420.171000",
          "114420.171000",
          "114420.171000",
          "114420.171000",
          "114420.187000",
          "114420.187000",
          "114420.187000",
          "114420.187000",
          "114420.187000",
          "114420.187000",
          "114500.156000",
          "114500.156000",
          "114500.156000",
          "114500.156000",
          "114500.156000",
          "114500.156000",
          "114500.156000",
          "114500.171000",
          "114500.171000",
          "114500.171000",
          "114500.171000",
          "114500.171000",
          "114500.171000",
          "114500.171000",
          "114500.187000",
          "114500.187000",
          "114500.187000",
          "114500.187000",
          "114500.187000",
          "114500.187000",
          "114540.156000",
          "114540.156000",
          "114540.156000",
          "114540.156000",
          "114540.156000",
          "114540.156000",
          "114540.171000",
          "114540.171000",
          "114540.171000",
          "114540.171000",
          "114540.171000",
          "114540.171000",
          "114540.171000",
          "114540.171000",
          "114540.187000",
          "114540.187000",
          "114540.187000",
          "114540.187000",
          "114540.187000",
          "114540.187000",
          "114620.156000",
          "114620.156000",
          "114620.156000",
          "114620.156000",
          "114620.156000",
          "114620.156000",
          "114620.171000",
          "114620.171000",
          "114620.171000",
          "114620.171000",
          "114620.171000",
          "114620.171000",
          "114620.171000",
          "114620.171000",
          "114620.187000",
          "114620.187000",
          "114620.187000",
          "114620.187000",
          "114620.187000",
          "114620.187000",
          "114700.156000",
          "114700.156000",
          "114700.156000",
          "114700.156000",
          "114700.156000",
          "114700.156000",
          "114700.171000",
          "114700.171000",
          "114700.171000",
          "114700.171000",
          "114700.171000",
          "114700.187000",
          "114700.187000",
          "114700.187000",
          "114700.187000",
          "114700.187000",
          "114700.187000",
          "114700.187000",
          "114700.203000",
          "114700.203000",
          "114740.156000",
          "114740.156000",
          "114740.156000",
          "114740.156000",
          "114740.156000",
          "114740.156000",
          "114740.156000",
          "114740.171000",
          "114740.171000",
          "114740.171000",
          "114740.171000",
          "114740.171000",
          "114740.171000",
          "114740.171000",
          "114740.187000",
          "114740.187000",
          "114740.187000",
          "114740.187000",
          "114740.187000",
          "114740.187000",
          "114820.156000",
          "114820.156000",
          "114820.156000",
          "114820.156000",
          "114820.156000",
          "114820.156000",
          "114820.171000",
          "114820.171000",
          "114820.171000",
          "114820.171000",
          "114820.171000",
          "114820.171000",
          "114820.171000",
          "114820.171000",
          "114820.187000",
          "114820.187000",
          "114820.187000",
          "114820.187000",
          "114820.187000",
          "114820.187000",
          "114848.281000",
          "114848.281000",
          "114848.281000",
          "114848.296000",
          "114848.296000",
          "114848.296000",
          "114848.296000",
          "114848.296000",
          "114848.296000",
          "114848.296000",
          "114848.312000",
          "114848.312000",
          "114848.312000",
          "114848.312000",
          "114848.312000"
        ],
        "InstanceCreationTime": [
          "114140.156000",
          "114140.156000",
          "114140.156000",
          "114140.156000",
          "114140.171000",
          "114140.171000",
          "114140.171000",
          "114140.171000",
          "114140.171000",
          "114140.171000",
          "114140.171000",
          "114140.187000",
          "114140.187000",
          "114140.187000",
          "114140.187000",
          "114140.187000",
          "114140.187000",
          "114140.187000",
          "114140.203000",
          "114140.203000",
          "114140.203000",
          "114140.203000",
          "114140.203000",
          "114140.203000",
          "114140.203000",
          "114220.156000",
          "114220.156000",
          "114220.156000",
          "114220.156000",
          "114220.156000",
          "114220.156000",
          "114220.171000",
          "114220.171000",
          "114220.171000",
          "114220.171000",
          "114220.171000",
          "114220.171000",
          "114220.171000",
          "114220.171000",
          "114220.187000",
          "114220.187000",
          "114220.187000",
          "114220.187000",
          "114220.187000",
          "114220.187000",
          "114300.156000",
          "114300.156000",
          "114300.156000",
          "114300.156000",
          "114300.156000",
          "114300.156000",
          "114300.156000",
          "114300.171000",
          "114300.171000",
          "114300.171000",
          "114300.171000",
          "114300.171000",
          "114300.171000",
          "114300.171000",
          "114300.187000",
          "114300.187000",
          "114300.187000",
          "114300.187000",
          "114300.187000",
          "114300.187000",
          "114340.156000",
          "114340.156000",
          "114340.156000",
          "114340.156000",
          "114340.156000",
          "114340.156000",
          "114340.156000",
          "114340.171000",
          "114340.171000",
          "114340.171000",
          "114340.171000",
          "114340.171000",
          "114340.171000",
          "114340.171000",
          "114340.187000",
          "114340.187000",
          "114340.187000",
          "114340.187000",
          "114340.187000",
          "114340.187000",
          "114420.156000",
          "114420.156000",
          "114420.156000",
          "114420.156000",
          "114420.156000",
          "114420.156000",
          "114420.171000",
          "114420.171000",
          "114420.171000",
          "114420.171000",
          "114420.171000",
          "114420.171000",
          "114420.171000",
          "114420.171000",
          "114420.187000",
          "114420.187000",
          "114420.187000",
          "114420.187000",
          "114420.187000",
          "114420.187000",
          "114500.156000",
          "114500.156000",
          "114500.156000",
          "114500.156000",
          "114500.156000",
          "114500.156000",
          "114500.156000",
          "114500.171000",
          "114500.171000",
          "114500.171000",
          "114500.171000",
          "114500.171000",
          "114500.171000",
          "114500.171000",
          "114500.187000",
          "114500.187000",
          "114500.187000",
          "114500.187000",
          "114500.187000",
          "114500.187000",
          "114540.156000",
          "114540.156000",
          "114540.156000",
          "114540.156000",
          "114540.156000",
          "114540.156000",
          "114540.171000",
          "114540.171000",
          "114540.171000",
          "114540.171000",
          "114540.171000",
          "114540.171000",
          "114540.171000",
          "114540.171000",
          "114540.187000",
          "114540.187000",
          "114540.187000",
          "114540.187000",
          "114540.187000",
          "114540.187000",
          "114620.156000",
          "114620.156000",
          "114620.156000",
          "114620.156000",
          "114620.156000",
          "114620.156000",
          "114620.171000",
          "114620.171000",
          "114620.171000",
          "114620.171000",
          "114620.171000",
          "114620.171000",
          "114620.171000",
          "114620.171000",
          "114620.187000",
          "114620.187000",
          "114620.187000",
          "114620.187000",
          "114620.187000",
          "114620.187000",
          "114700.156000",
          "114700.156000",
          "114700.156000",
          "114700.156000",
          "114700.156000",
          "114700.156000",
          "114700.171000",
          "114700.171000",
          "114700.171000",
          "114700.171000",
          "114700.171000",
          "114700.187000",
          "114700.187000",
          "114700.187000",
          "114700.187000",
          "114700.187000",
          "114700.187000",
          "114700.187000",
          "114700.203000",
          "114700.203000",
          "114740.156000",
          "114740.156000",
          "114740.156000",
          "114740.156000",
          "114740.156000",
          "114740.156000",
          "114740.156000",
          "114740.171000",
          "114740.171000",
          "114740.171000",
          "114740.171000",
          "114740.171000",
          "114740.171000",
          "114740.171000",
          "114740.187000",
          "114740.187000",
          "114740.187000",
          "114740.187000",
          "114740.187000",
          "114740.187000",
          "114820.156000",
          "114820.156000",
          "114820.156000",
          "114820.156000",
          "114820.156000",
          "114820.156000",
          "114820.171000",
          "114820.171000",
          "114820.171000",
          "114820.171000",
          "114820.171000",
          "114820.171000",
          "114820.171000",
          "114820.171000",
          "114820.187000",
          "114820.187000",
          "114820.187000",
          "114820.187000",
          "114820.187000",
          "114820.187000",
          "114848.281000",
          "114848.281000",
          "114848.281000",
          "114848.296000",
          "114848.296000",
          "114848.296000",
          "114848.296000",
          "114848.296000",
          "114848.296000",
          "114848.296000",
          "114848.312000",
          "114848.312000",
          "114848.312000",
          "114848.312000",
          "114848.312000"
        ],
        "InstanceNumber": [
          1,
          2,
          3,
          4,
          5,
          6,
          7,
          8,
          9,
          10,
          11,
          12,
          13,
          14,
          15,
          16,
          17,
          18,
          19,
          20,
          21,
          22,
          23,
          24,
          25,
          26,
          27,
          28,
          29,
          30,
          31,
          32,
          33,
          34,
          35,
          36,
          37,
          38,
          39,
          40,
          41,
          42,
          43,
          44,
          45,
          46,
          47,
          48,
          49,
          50,
          51,
          52,
          53,
          54,
          55,
          56,
          57,
