{
  "aor": 0.0007760669456066947,
  "aqi": 0.014240444895397488,
  "bids_meta": {
    "AcquisitionMatrixPE": 68,
    "AcquisitionNumber": 1,
    "AcquisitionTime": "16:17:2.725000",
    "BandwidthPerPixelPhaseEncode": 31.289,
    "BaseResolution": 68,
    "CogAtlasID": "TODO",
    "CoilString": "C:HEA;HEP",
    "ConversionSoftware": "dcm2niix",
    "ConversionSoftwareVersion": "v1.0.20190902",
    "DerivedVendorReportedEchoSpacing": 0.000470002,
    "DeviceSerialNumber": "35450",
    "DwellTime": 3e-06,
    "EchoTime": 0.023,
    "EffectiveEchoSpacing": 0.000470002,
    "FlipAngle": 76,
    "ImageOrientationPatientDICOM": [
      0.999123,
      -0.00870641,
      -0.0409606,
      -2.72923e-08,
      0.978148,
      -0.207912
    ],
    "ImageType": [
      "ORIGINAL",
      "PRIMARY",
      "M",
      "ND",
      "MOSAIC"
    ],
    "ImagingFrequency": 123.219,
    "InPlanePhaseEncodingDirectionDICOM": "COL",
    "InstitutionAddress": "Univeristy_Ave._197_Newark_North_East_US_07102-1814",
    "InstitutionName": "RUBIC",
    "InstitutionalDepartmentName": "Department",
    "MRAcquisitionType": "2D",
    "MagneticFieldStrength": 3,
    "Manufacturer": "Siemens",
    "ManufacturersModelName": "TrioTim",
    "Modality": "MR",
    "PartialFourier": 1,
    "PatientPosition": "HFS",
    "PercentPhaseFOV": 100,
    "PhaseEncodingDirection": "j-",
    "PhaseEncodingSteps": 68,
    "PhaseResolution": 1,
    "PixelBandwidth": 2451,
    "ProcedureStepDescription": "Krekelberg_David",
    "ProtocolName": "ep2d_bold_RestEPI_1",
    "PulseSequenceDetails": "%SiemensSeq%_ep2d_bold",
    "ReceiveCoilName": "HeadMatrix",
    "ReconMatrixPE": 68,
    "RepetitionTime": 2,
    "SAR": 0.174476,
    "ScanOptions": "FS",
    "ScanningSequence": "EP",
    "SequenceName": "_epfid2d1_68",
    "SequenceVariant": "SK",
    "SeriesDescription": "ep2d_bold_RestEPI_1",
    "SeriesNumber": 7,
    "ShimSetting": [
      1906,
      -578,
      -7525,
      680,
      90,
      -108,
      -493,
      96
    ],
    "SliceThickness": 2.5,
    "SliceTiming": [
      1.9525,
      1.8975,
      1.84,
      1.785,
      1.73,
      1.6725,
      1.6175,
      1.5625,
      1.5075,
      1.45,
      1.395,
      1.34,
      1.2825,
      1.2275,
      1.1725,
      1.115,
      1.06,
      1.005,
      0.9475,
      0.8925,
      0.8375,
      0.7825,
      0.725,
      0.67,
      0.615,
      0.5575,
      0.5025,
      0.4475,
      0.39,
      0.335,
      0.28,
      0.225,
      0.1675,
      0.1125,
      0.0575,
      0
    ],
    "SoftwareVersions": "syngo_MR_B19",
    "SpacingBetweenSlices": 3,
    "StationName": "MRC35450",
    "TaskName": "rest",
    "TotalReadoutTime": 0.0314901,
    "TxRefAmp": 341.399,
    "dataset": "<unset>",
    "dcmmeta_affine": [
      [
        -2.997368574142456,
        -8.187704736428714e-08,
        -0.12562695145606995,
        105.46493530273438
      ],
      [
        0.026119230315089226,
        2.9344427585601807,
        -0.6231879591941833,
        -69.88153839111328
      ],
      [
        -0.12288171797990799,
        0.6237350702285767,
        2.9318687915802,
        -43.985408782958984
      ],
      [
        0.0,
        0.0,
        0.0,
        1.0
      ]
    ],
    "dcmmeta_reorient_transform": [
      [
        0.0,
        -1.0,
        0.0,
        67.0
      ],
      [
        1.0,
        0.0,
        0.0,
        0.0
      ],
      [
        0.0,
        0.0,
        1.0,
        0.0
      ],
      [
        0.0,
        0.0,
        0.0,
        1.0
      ]
    ],
    "dcmmeta_shape": [
      68,
      68,
      36,
      240
    ],
    "dcmmeta_slice_dim": 2,
    "dcmmeta_version": 0.6,
    "global": {
      "const": {
        "AcquisitionMatrix": [
          68,
          0,
          0,
          68
        ],
        "AngioFlag": "N",
        "BitsAllocated": 16,
        "BitsStored": 12,
        "Columns": 408,
        "EchoNumbers": 1,
        "EchoTime": 23.0,
        "EchoTrainLength": 1,
        "FlipAngle": 76.0,
        "HighBit": 11,
        "ImageOrientationPatient": [
          0.99912283025679,
          -0.0087064102515,
          -0.0409605722641,
          -2.729235e-08,
          0.97814760207144,
          -0.2079116845247
        ],
        "ImagePositionPatient": [
          -615.01755943455,
          -621.14113569082,
          124.72968962399
        ],
        "ImageType": [
          "ORIGINAL",
          "PRIMARY",
          "M",
          "ND",
          "MOSAIC"
        ],
        "ImagedNucleus": "1H",
        "ImagingFrequency": 123.218534,
        "InPlanePhaseEncodingDirection": "COL",
        "MRAcquisitionType": "2D",
        "MagneticFieldStrength": 3.0,
        "Manufacturer": "SIEMENS",
        "ManufacturerModelName": "TrioTim",
        "Modality": "MR",
        "NumberOfAverages": 1.0,
        "NumberOfPhaseEncodingSteps": 68,
        "PercentPhaseFieldOfView": 100.0,
        "PercentSampling": 100.0,
        "PerformedProcedureStepStartTime": "154339.687000",
        "PhotometricInterpretation": "MONOCHROME2",
        "PixelBandwidth": 2451.0,
        "PixelRepresentation": 0,
        "PixelSpacing": [
          3.0,
          3.0
        ],
        "ProtocolName": "ep2d_bold_RestEPI_1",
        "RepetitionTime": 2000.0,
        "Rows": 408,
        "SAR": 0.1744756631738,
        "SamplesPerPixel": 1,
        "ScanOptions": "FS",
        "ScanningSequence": "EP",
        "SequenceName": "*epfid2d1_68",
        "SequenceVariant": "SK",
        "SeriesDescription": "ep2d_bold_RestEPI_1",
        "SeriesNumber": 7,
        "SeriesTime": "161755.671000",
        "SliceLocation": -32.886452164091,
        "SliceThickness": 2.5,
        "SmallestImagePixelValue": 0,
        "SoftwareVersions": "syngo MR B19",
        "SpacingBetweenSlices": 3.0000000542819,
        "SpecificCharacterSet": "ISO_IR 100",
        "StudyID": "1",
        "StudyTime": "154339.640000",
        "TransmitCoilName": "Body",
        "VariableFlipAngleFlag": "N",
        "WindowCenterWidthExplanation": "Algo1",
        "dBdt": 0.0
      },
      "slices": {}
    },
    "modality": "bold",
    "run_id": 1,
    "subject_id": "214",
    "task_id": "rest",
    "time": {
      "samples": {
        "AcquisitionNumber": [
          1,
          2,
          3,
          4,
          5,
          6,
          7,
          8,
          9,
          10,
          11,
          12,
          13,
          14,
          15,
          16,
          17,
          18,
          19,
          20,
          21,
          22,
          23,
          24,
          25,
          26,
          27,
          28,
          29,
          30,
          31,
          32,
          33,
          34,
          35,
          36,
          37,
          38,
          39,
          40,
          41,
          42,
          43,
          44,
          45,
          46,
          47,
          48,
          49,
          50,
          51,
          52,
          53,
          54,
          55,
          56,
          57,
          58,
          59,
          60,
          61,
          62,
          63,
          64,
          65,
          66,
          67,
          68,
          69,
          70,
          71,
          72,
          73,
          74,
          75,
          76,
          77,
          78,
          79,
          80,
          81,
          82,
          83,
          84,
          85,
          86,
          87,
          88,
          89,
          90,
          91,
          92,
          93,
          94,
          95,
          96,
          97,
          98,
          99,
          100,
          101,
          102,
          103,
          104,
          105,
          106,
          107,
          108,
          109,
          110,
          111,
          112,
          113,
          114,
          115,
          116,
          117,
          118,
          119,
          120,
          121,
          122,
          123,
          124,
          125,
          126,
          127,
          128,
          129,
          130,
          131,
          132,
          133,
          134,
          135,
          136,
          137,
          138,
          139,
          140,
          141,
          142,
          143,
          144,
          145,
          146,
          147,
          148,
          149,
          150,
          151,
          152,
          153,
          154,
          155,
          156,
          157,
          158,
          159,
          160,
          161,
          162,
          163,
          164,
          165,
          166,
          167,
          168,
          169,
          170,
          171,
          172,
          173,
          174,
          175,
          176,
          177,
          178,
          179,
          180,
          181,
          182,
          183,
          184,
          185,
          186,
          187,
          188,
          189,
          190,
          191,
          192,
          193,
          194,
          195,
          196,
          197,
          198,
          199,
          200,
          201,
          202,
          203,
          204,
          205,
          206,
          207,
          208,
          209,
          210,
          211,
          212,
          213,
          214,
          215,
          216,
          217,
          218,
          219,
          220,
          221,
          222,
          223,
          224,
          225,
          226,
          227,
          228,
          229,
          230,
          231,
          232,
          233,
          234,
          235,
          236,
          237,
          238,
          239,
          240
        ],
        "AcquisitionTime": [
          "161702.725000",
          "161704.732500",
          "161706.740000",
          "161708.750000",
          "161710.757500",
          "161712.765000",
          "161714.772500",
          "161716.780000",
          "161718.790000",
          "161720.797500",
          "161722.805000",
          "161724.812500",
          "161726.822500",
          "161728.830000",
          "161730.837500",
          "161732.845000",
          "161734.852500",
          "161736.862500",
          "161738.870000",
          "161740.877500",
          "161742.885000",
          "161744.892500",
          "161746.902500",
          "161748.910000",
          "161750.917500",
          "161752.925000",
          "161754.935000",
          "161756.942500",
          "161758.950000",
          "161800.957500",
          "161802.965000",
          "161804.975000",
          "161806.982500",
          "161808.990000",
          "161810.997500",
          "161813.005000",
          "161815.015000",
          "161817.022500",
          "161819.030000",
          "161821.037500",
          "161823.045000",
          "161825.055000",
          "161827.062500",
          "161829.070000",
          "161831.077500",
          "161833.087500",
          "161835.095000",
          "161837.102500",
          "161839.110000",
          "161841.117500",
          "161843.127500",
          "161845.135000",
          "161847.142500",
          "161849.150000",
          "161851.157500",
          "161853.167500",
          "161855.175000",
          "161857.182500",
          "161859.190000",
          "161901.200000",
          "161903.207500",
          "161905.215000",
          "161907.222500",
          "161909.230000",
          "161911.240000",
          "161913.247500",
          "161915.255000",
          "161917.262500",
          "161919.270000",
          "161921.280000",
          "161923.287500",
          "161925.295000",
          "161927.302500",
          "161929.312500",
          "161931.320000",
          "161933.327500",
          "161935.335000",
          "161937.342500",
          "161939.352500",
          "161941.360000",
          "161943.367500",
          "161945.375000",
          "161947.382500",
          "161949.392500",
          "161951.400000",
          "161953.407500",
          "161955.415000",
          "161957.422500",
          "161959.432500",
          "162001.440000",
          "162003.447500",
          "162005.455000",
          "162007.465000",
          "162009.472500",
          "162011.480000",
          "162013.487500",
          "162015.495000",
          "162017.505000",
          "162019.512500",
          "162021.520000",
          "162023.527500",
          "162025.535000",
          "162027.545000",
          "162029.552500",
          "162031.560000",
          "162033.567500",
          "162035.577500",
          "162037.585000",
          "162039.592500",
          "162041.600000",
          "162043.607500",
          "162045.617500",
          "162047.625000",
          "162049.632500",
          "162051.640000",
          "162053.647500",
          "162055.657500",
          "162057.665000",
          "162059.672500",
          "162101.680000",
          "162103.690000",
          "162105.697500",
          "162107.705000",
          "162109.712500",
          "162111.720000",
          "162113.730000",
          "162115.737500",
          "162117.745000",
          "162119.752500",
          "162121.760000",
          "162123.770000",
          "162125.777500",
          "162127.785000",
          "162129.792500",
          "162131.800000",
          "162133.810000",
          "162135.817500",
          "162137.825000",
          "162139.832500",
          "162141.842500",
          "162143.850000",
          "162145.857500",
          "162147.865000",
          "162149.872500",
          "162151.882500",
          "162153.890000",
          "162155.897500",
          "162157.905000",
          "162159.912500",
          "162201.922500",
          "162203.930000",
          "162205.937500",
          "162207.945000",
          "162209.955000",
          "162211.962500",
          "162213.970000",
          "162215.977500",
          "162217.985000",
          "162219.995000",
          "162222.002500",
          "162224.010000",
          "162226.017500",
          "162228.025000",
          "162230.035000",
          "162232.042500",
          "162234.050000",
          "162236.057500",
          "162238.067500",
          "162240.075000",
          "162242.082500",
          "162244.090000",
          "162246.097500",
          "162248.107500",
          "162250.115000",
          "162252.122500",
          "162254.130000",
          "162256.137500",
          "162258.147500",
          "162300.155000",
          "162302.162500",
          "162304.170000",
          "162306.177500",
          "162308.187500",
          "162310.195000",
          "162312.202500",
          "162314.210000",
          "162316.220000",
          "162318.227500",
          "162320.235000",
          "162322.242500",
          "162324.250000",
          "162326.260000",
          "162328.267500",
          "162330.275000",
          "162332.282500",
          "162334.290000",
          "162336.300000",
          "162338.307500",
          "162340.315000",
          "162342.322500",
          "162344.332500",
          "162346.340000",
          "162348.347500",
          "162350.355000",
          "162352.362500",
          "162354.372500",
          "162356.380000",
          "162358.387500",
          "162400.395000",
          "162402.402500",
          "162404.412500",
          "162406.420000",
          "162408.427500",
          "162410.435000",
          "162412.445000",
          "162414.452500",
          "162416.460000",
          "162418.467500",
          "162420.475000",
          "162422.485000",
          "162424.492500",
          "162426.500000",
          "162428.507500",
          "162430.515000",
          "162432.525000",
          "162434.532500",
          "162436.540000",
          "162438.547500",
          "162440.555000",
          "162442.565000",
          "162444.572500",
          "162446.580000",
          "162448.587500",
          "162450.597500",
          "162452.605000",
          "162454.612500",
          "162456.620000",
          "162458.627500",
          "162500.637500",
          "162502.645000"
        ],
        "ContentTime": [
          "161755.687000",
          "161755.687000",
          "161755.687000",
          "161755.687000",
          "161755.687000",
          "161755.687000",
          "161755.687000",
          "161755.703000",
          "161755.703000",
          "161755.703000",
          "161755.703000",
          "161755.703000",
          "161755.703000",
          "161755.703000",
          "161755.718000",
          "161755.718000",
          "161755.718000",
          "161755.718000",
          "161755.718000",
          "161755.734000",
          "161755.734000",
          "161755.734000",
          "161755.734000",
          "161755.734000",
          "161755.734000",
          "161755.750000",
          "161835.671000",
          "161835.687000",
          "161835.687000",
          "161835.687000",
          "161835.687000",
          "161835.687000",
          "161835.687000",
          "161835.703000",
          "161835.703000",
          "161835.703000",
          "161835.703000",
          "161835.703000",
          "161835.703000",
          "161835.703000",
          "161835.718000",
          "161835.718000",
          "161835.718000",
          "161835.718000",
          "161835.718000",
          "161835.718000",
          "161915.671000",
          "161915.687000",
          "161915.687000",
          "161915.687000",
          "161915.687000",
          "161915.687000",
          "161915.703000",
          "161915.703000",
          "161915.703000",
          "161915.703000",
          "161915.703000",
          "161915.703000",
          "161915.703000",
          "161915.703000",
          "161915.718000",
          "161915.718000",
          "161915.718000",
          "161915.718000",
          "161915.718000",
          "161915.734000",
          "161955.671000",
          "161955.671000",
          "161955.687000",
          "161955.687000",
          "161955.687000",
          "161955.687000",
          "161955.687000",
          "161955.687000",
          "161955.687000",
          "161955.703000",
          "161955.703000",
          "161955.703000",
          "161955.703000",
          "161955.703000",
          "161955.703000",
          "161955.703000",
          "161955.718000",
          "161955.718000",
          "161955.718000",
          "161955.718000",
          "162035.671000",
          "162035.687000",
          "162035.687000",
          "162035.687000",
          "162035.687000",
          "162035.703000",
          "162035.703000",
          "162035.703000",
          "162035.703000",
          "162035.703000",
          "162035.703000",
          "162035.703000",
          "162035.703000",
          "162035.718000",
          "162035.718000",
          "162035.718000",
          "162035.718000",
          "162035.718000",
          "162035.718000",
          "162035.718000",
          "162115.671000",
          "162115.687000",
          "162115.687000",
          "162115.703000",
          "162115.703000",
          "162115.703000",
          "162115.703000",
          "162115.703000",
          "162115.703000",
          "162115.703000",
          "162115.718000",
          "162115.718000",
          "162115.718000",
          "162115.718000",
          "162115.718000",
          "162115.718000",
          "162115.718000",
          "162115.734000",
          "162115.734000",
          "162115.734000",
          "162155.671000",
          "162155.687000",
          "162155.687000",
          "162155.687000",
          "162155.687000",
          "162155.687000",
          "162155.687000",
          "162155.703000",
          "162155.703000",
          "162155.703000",
          "162155.703000",
          "162155.703000",
          "162155.703000",
          "162155.703000",
          "162155.718000",
          "162155.718000",
          "162155.718000",
          "162155.718000",
          "162155.718000",
          "162155.718000",
          "162235.671000",
          "162235.687000",
          "162235.687000",
          "162235.687000",
          "162235.687000",
          "162235.703000",
          "162235.703000",
          "162235.703000",
          "162235.703000",
          "162235.703000",
          "162235.703000",
          "162235.703000",
          "162235.718000",
          "162235.718000",
          "162235.718000",
          "162235.718000",
          "162235.718000",
          "162235.718000",
          "162235.718000",
          "162235.734000",
          "162315.671000",
          "162315.671000",
          "162315.687000",
          "162315.687000",
          "162315.687000",
          "162315.687000",
          "162315.687000",
          "162315.687000",
          "162315.687000",
          "162315.703000",
          "162315.703000",
          "162315.703000",
          "162315.703000",
          "162315.703000",
          "162315.703000",
          "162315.703000",
          "162315.718000",
          "162315.718000",
          "162315.718000",
          "162315.718000",
          "162355.671000",
          "162355.687000",
          "162355.687000",
          "162355.687000",
          "162355.687000",
          "162355.687000",
          "162355.687000",
          "162355.703000",
          "162355.703000",
          "162355.703000",
          "162355.703000",
          "162355.703000",
          "162355.703000",
          "162355.703000",
          "162355.718000",
          "162355.718000",
          "162355.718000",
          "162355.718000",
          "162355.718000",
          "162355.718000",
          "162435.671000",
          "162435.687000",
          "162435.687000",
          "162435.687000",
          "162435.687000",
          "162435.687000",
          "162435.687000",
          "162435.687000",
          "162435.687000",
          "162435.703000",
          "162435.703000",
          "162435.703000",
          "162435.703000",
          "162435.703000",
          "162435.703000",
          "162435.718000",
          "162435.718000",
          "162435.718000",
          "162435.718000",
          "162435.718000",
          "162502.156000",
          "162502.156000",
          "162502.171000",
          "162502.171000",
          "162502.171000",
          "162502.171000",
          "162502.171000",
          "162502.171000",
          "162502.171000",
          "162502.187000",
          "162502.187000",
          "162502.187000",
          "162502.187000",
          "162502.187000"
        ],
        "InstanceCreationTime": [
          "161755.687000",
          "161755.687000",
          "161755.687000",
          "161755.687000",
          "161755.687000",
          "161755.687000",
          "161755.687000",
          "161755.703000",
          "161755.703000",
          "161755.703000",
          "161755.703000",
          "161755.703000",
          "161755.703000",
          "161755.703000",
          "161755.718000",
          "161755.718000",
          "161755.718000",
          "161755.718000",
          "161755.718000",
          "161755.734000",
          "161755.734000",
          "161755.734000",
          "161755.734000",
          "161755.734000",
          "161755.734000",
          "161755.750000",
          "161835.671000",
          "161835.687000",
          "161835.687000",
          "161835.687000",
          "161835.687000",
          "161835.687000",
          "161835.687000",
          "161835.703000",
          "161835.703000",
          "161835.703000",
          "161835.703000",
          "161835.703000",
          "161835.703000",
          "161835.703000",
          "161835.718000",
          "161835.718000",
          "161835.718000",
          "161835.718000",
          "161835.718000",
          "161835.718000",
          "161915.671000",
          "161915.687000",
          "161915.687000",
          "161915.687000",
          "161915.687000",
          "161915.687000",
          "161915.703000",
          "161915.703000",
          "161915.703000",
          "161915.703000",
          "161915.703000",
          "161915.703000",
          "161915.703000",
          "161915.703000",
          "161915.718000",
          "161915.718000",
          "161915.718000",
          "161915.718000",
          "161915.718000",
          "161915.734000",
          "161955.671000",
          "161955.671000",
          "161955.687000",
          "161955.687000",
          "161955.687000",
          "161955.687000",
          "161955.687000",
          "161955.687000",
          "161955.687000",
          "161955.703000",
          "161955.703000",
          "161955.703000",
          "161955.703000",
          "161955.703000",
          "161955.703000",
          "161955.703000",
          "161955.718000",
          "161955.718000",
          "161955.718000",
          "161955.718000",
          "162035.671000",
          "162035.687000",
          "162035.687000",
          "162035.687000",
          "162035.687000",
          "162035.703000",
          "162035.703000",
          "162035.703000",
          "162035.703000",
          "162035.703000",
          "162035.703000",
          "162035.703000",
          "162035.703000",
          "162035.718000",
          "162035.718000",
          "162035.718000",
          "162035.718000",
          "162035.718000",
          "162035.718000",
          "162035.718000",
          "162115.671000",
          "162115.687000",
          "162115.687000",
          "162115.703000",
          "162115.703000",
          "162115.703000",
          "162115.703000",
          "162115.703000",
          "162115.703000",
          "162115.703000",
          "162115.718000",
          "162115.718000",
          "162115.718000",
          "162115.718000",
          "162115.718000",
          "162115.718000",
          "162115.718000",
          "162115.734000",
          "162115.734000",
          "162115.734000",
          "162155.671000",
          "162155.687000",
          "162155.687000",
          "162155.687000",
          "162155.687000",
          "162155.687000",
          "162155.687000",
          "162155.703000",
          "162155.703000",
          "162155.703000",
          "162155.703000",
          "162155.703000",
          "162155.703000",
          "162155.703000",
          "162155.718000",
          "162155.718000",
          "162155.718000",
          "162155.718000",
          "162155.718000",
          "162155.718000",
          "162235.671000",
          "162235.687000",
          "162235.687000",
          "162235.687000",
          "162235.687000",
          "162235.703000",
          "162235.703000",
          "162235.703000",
          "162235.703000",
          "162235.703000",
          "162235.703000",
          "162235.703000",
          "162235.718000",
          "162235.718000",
          "162235.718000",
          "162235.718000",
          "162235.718000",
          "162235.718000",
          "162235.718000",
          "162235.734000",
          "162315.671000",
          "162315.671000",
          "162315.687000",
          "162315.687000",
          "162315.687000",
          "162315.687000",
          "162315.687000",
          "162315.687000",
          "162315.687000",
          "162315.703000",
          "162315.703000",
          "162315.703000",
          "162315.703000",
          "162315.703000",
          "162315.703000",
          "162315.703000",
          "162315.718000",
          "162315.718000",
          "162315.718000",
          "162315.718000",
          "162355.671000",
          "162355.687000",
          "162355.687000",
          "162355.687000",
          "162355.687000",
          "162355.687000",
          "162355.687000",
          "162355.703000",
          "162355.703000",
          "162355.703000",
          "162355.703000",
          "162355.703000",
          "162355.703000",
          "162355.703000",
          "162355.718000",
          "162355.718000",
          "162355.718000",
          "162355.718000",
          "162355.718000",
          "162355.718000",
          "162435.671000",
          "162435.687000",
          "162435.687000",
          "162435.687000",
          "162435.687000",
          "162435.687000",
          "162435.687000",
          "162435.687000",
          "162435.687000",
          "162435.703000",
          "162435.703000",
          "162435.703000",
          "162435.703000",
          "162435.703000",
          "162435.703000",
          "162435.718000",
          "162435.718000",
          "162435.718000",
          "162435.718000",
          "162435.718000",
          "162502.156000",
          "162502.156000",
          "162502.171000",
          "162502.171000",
          "162502.171000",
          "162502.171000",
          "162502.171000",
          "162502.171000",
          "162502.171000",
          "162502.187000",
          "162502.187000",
          "162502.187000",
          "162502.187000",
          "162502.187000"
        ],
        "InstanceNumber": [
          1,
          2,
          3,
          4,
          5,
          6,
          7,
          8,
          9,
          10,
          11,
          12,
          13,
          14,
          15,
          16,
          17,
          18,
          19,
          20,
          21,
          22,
          23,
          24,
          25,
          26,
          27,
          28,
          29,
          30,
          31,
          32,
          33,
          34,
          35,
          36,
          37,
          38,
          39,
          40,
          41,
          42,
          43,
          44,
          45,
          46,
