{
  "aor": 0.0006931906614785993,
  "aqi": 0.012940520894941633,
  "bids_meta": {
    "AcquisitionMatrixPE": 68,
    "AcquisitionNumber": 1,
    "AcquisitionTime": "17:03:41.392500",
    "BandwidthPerPixelPhaseEncode": 31.289,
    "BaseResolution": 68,
    "CogAtlasID": "TODO",
    "CoilString": "C:HEA;HEP",
    "ConversionSoftware": "dcm2niix",
    "ConversionSoftwareVersion": "v1.0.20190902",
    "DerivedVendorReportedEchoSpacing": 0.000470002,
    "DeviceSerialNumber": "35450",
    "DwellTime": 3e-06,
    "EchoTime": 0.023,
    "EffectiveEchoSpacing": 0.000470002,
    "FlipAngle": 76,
    "ImageOrientationPatientDICOM": [
      0.999123,
      -0.00870641,
      -0.0409606,
      -2.72923e-08,
      0.978148,
      -0.207912
    ],
    "ImageType": [
      "ORIGINAL",
      "PRIMARY",
      "M",
      "ND",
      "MOSAIC"
    ],
    "ImagingFrequency": 123.219,
    "InPlanePhaseEncodingDirectionDICOM": "COL",
    "InstitutionAddress": "Univeristy_Ave._197_Newark_North_East_US_07102-1814",
    "InstitutionName": "RUBIC",
    "InstitutionalDepartmentName": "Department",
    "MRAcquisitionType": "2D",
    "MagneticFieldStrength": 3,
    "Manufacturer": "Siemens",
    "ManufacturersModelName": "TrioTim",
    "Modality": "MR",
    "PartialFourier": 1,
    "PatientPosition": "HFS",
    "PercentPhaseFOV": 100,
    "PhaseEncodingDirection": "j-",
    "PhaseEncodingSteps": 68,
    "PhaseResolution": 1,
    "PixelBandwidth": 2451,
    "ProcedureStepDescription": "Krekelberg_David",
    "ProtocolName": "ep2d_bold_CardGameEPI_3",
    "PulseSequenceDetails": "%SiemensSeq%_ep2d_bold",
    "ReceiveCoilName": "HeadMatrix",
    "ReconMatrixPE": 68,
    "RepetitionTime": 2,
    "SAR": 0.174513,
    "ScanOptions": "FS",
    "ScanningSequence": "EP",
    "SequenceName": "_epfid2d1_68",
    "SequenceVariant": "SK",
    "SeriesDescription": "ep2d_bold_CardGameEPI_3",
    "SeriesNumber": 12,
    "ShimSetting": [
      1906,
      -578,
      -7525,
      680,
      90,
      -108,
      -493,
      96
    ],
    "SliceThickness": 2.5,
    "SliceTiming": [
      1.9525,
      1.8975,
      1.84,
      1.785,
      1.73,
      1.6725,
      1.6175,
      1.5625,
      1.5075,
      1.45,
      1.395,
      1.34,
      1.2825,
      1.2275,
      1.1725,
      1.115,
      1.06,
      1.005,
      0.9475,
      0.8925,
      0.8375,
      0.7825,
      0.725,
      0.67,
      0.615,
      0.5575,
      0.5025,
      0.4475,
      0.39,
      0.335,
      0.28,
      0.225,
      0.1675,
      0.1125,
      0.0575,
      0
    ],
    "SoftwareVersions": "syngo_MR_B19",
    "SpacingBetweenSlices": 3,
    "StationName": "MRC35450",
    "TaskName": "cardgame",
    "TotalReadoutTime": 0.0314901,
    "TxRefAmp": 341.399,
    "dataset": "<unset>",
    "dcmmeta_affine": [
      [
        -2.997368574142456,
        -8.187704736428714e-08,
        -0.12562695145606995,
        105.46493530273438
      ],
      [
        0.026119230315089226,
        2.9344427585601807,
        -0.6231879591941833,
        -69.88153839111328
      ],
      [
        -0.12288171797990799,
        0.6237350702285767,
        2.9318687915802,
        -43.985408782958984
      ],
      [
        0.0,
        0.0,
        0.0,
        1.0
      ]
    ],
    "dcmmeta_reorient_transform": [
      [
        0.0,
        -1.0,
        0.0,
        67.0
      ],
      [
        1.0,
        0.0,
        0.0,
        0.0
      ],
      [
        0.0,
        0.0,
        1.0,
        0.0
      ],
      [
        0.0,
        0.0,
        0.0,
        1.0
      ]
    ],
    "dcmmeta_shape": [
      68,
      68,
      36,
      258
    ],
    "dcmmeta_slice_dim": 2,
    "dcmmeta_version": 0.6,
    "global": {
      "const": {
        "AcquisitionMatrix": [
          68,
          0,
          0,
          68
        ],
        "AngioFlag": "N",
        "BitsAllocated": 16,
        "BitsStored": 12,
        "Columns": 408,
        "EchoNumbers": 1,
        "EchoTime": 23.0,
        "EchoTrainLength": 1,
        "FlipAngle": 76.0,
        "HighBit": 11,
        "ImageOrientationPatient": [
          0.99912283025679,
          -0.0087064102515,
          -0.0409605722641,
          -2.729235e-08,
          0.97814760207144,
          -0.2079116845247
        ],
        "ImagePositionPatient": [
          -615.01755943455,
          -621.14113569082,
          124.72968962399
        ],
        "ImageType": [
          "ORIGINAL",
          "PRIMARY",
          "M",
          "ND",
          "MOSAIC"
        ],
        "ImagedNucleus": "1H",
        "ImagingFrequency": 123.218603,
        "InPlanePhaseEncodingDirection": "COL",
        "MRAcquisitionType": "2D",
        "MagneticFieldStrength": 3.0,
        "Manufacturer": "SIEMENS",
        "ManufacturerModelName": "TrioTim",
        "Modality": "MR",
        "NumberOfAverages": 1.0,
        "NumberOfPhaseEncodingSteps": 68,
        "PercentPhaseFieldOfView": 100.0,
        "PercentSampling": 100.0,
        "PerformedProcedureStepStartTime": "154339.687000",
        "PhotometricInterpretation": "MONOCHROME2",
        "PixelBandwidth": 2451.0,
        "PixelRepresentation": 0,
        "PixelSpacing": [
          3.0,
          3.0
        ],
        "ProtocolName": "ep2d_bold_CardGameEPI_3",
        "RepetitionTime": 2000.0,
        "Rows": 408,
        "SAR": 0.17451299067715,
        "SamplesPerPixel": 1,
        "ScanOptions": "FS",
        "ScanningSequence": "EP",
        "SequenceName": "*epfid2d1_68",
        "SequenceVariant": "SK",
        "SeriesDescription": "ep2d_bold_CardGameEPI_3",
        "SeriesNumber": 12,
        "SeriesTime": "170434.171000",
        "SliceLocation": -32.886452164091,
        "SliceThickness": 2.5,
        "SmallestImagePixelValue": 0,
        "SoftwareVersions": "syngo MR B19",
        "SpacingBetweenSlices": 3.0000000542819,
        "SpecificCharacterSet": "ISO_IR 100",
        "StudyID": "1",
        "StudyTime": "154339.640000",
        "TransmitCoilName": "Body",
        "VariableFlipAngleFlag": "N",
        "WindowCenterWidthExplanation": "Algo1",
        "dBdt": 0.0
      },
      "slices": {}
    },
    "modality": "bold",
    "run_id": 3,
    "subject_id": "214",
    "task_id": "cardgame",
    "time": {
      "samples": {
        "AcquisitionNumber": [
          1,
          2,
          3,
          4,
          5,
          6,
          7,
          8,
          9,
          10,
          11,
          12,
          13,
          14,
          15,
          16,
          17,
          18,
          19,
          20,
          21,
          22,
          23,
          24,
          25,
          26,
          27,
          28,
          29,
          30,
          31,
          32,
          33,
          34,
          35,
          36,
          37,
          38,
          39,
          40,
          41,
          42,
          43,
          44,
          45,
          46,
          47,
          48,
          49,
          50,
          51,
          52,
          53,
          54,
          55,
          56,
          57,
          58,
          59,
          60,
          61,
          62,
          63,
          64,
          65,
          66,
          67,
          68,
          69,
          70,
          71,
          72,
          73,
          74,
          75,
          76,
          77,
          78,
          79,
          80,
          81,
          82,
          83,
          84,
          85,
          86,
          87,
          88,
          89,
          90,
          91,
          92,
          93,
          94,
          95,
          96,
          97,
          98,
          99,
          100,
          101,
          102,
          103,
          104,
          105,
          106,
          107,
          108,
          109,
          110,
          111,
          112,
          113,
          114,
          115,
          116,
          117,
          118,
          119,
          120,
          121,
          122,
          123,
          124,
          125,
          126,
          127,
          128,
          129,
          130,
          131,
          132,
          133,
          134,
          135,
          136,
          137,
          138,
          139,
          140,
          141,
          142,
          143,
          144,
          145,
          146,
          147,
          148,
          149,
          150,
          151,
          152,
          153,
          154,
          155,
          156,
          157,
          158,
          159,
          160,
          161,
          162,
          163,
          164,
          165,
          166,
          167,
          168,
          169,
          170,
          171,
          172,
          173,
          174,
          175,
          176,
          177,
          178,
          179,
          180,
          181,
          182,
          183,
          184,
          185,
          186,
          187,
          188,
          189,
          190,
          191,
          192,
          193,
          194,
          195,
          196,
          197,
          198,
          199,
          200,
          201,
          202,
          203,
          204,
          205,
          206,
          207,
          208,
          209,
          210,
          211,
          212,
          213,
          214,
          215,
          216,
          217,
          218,
          219,
          220,
          221,
          222,
          223,
          224,
          225,
          226,
          227,
          228,
          229,
          230,
          231,
          232,
          233,
          234,
          235,
          236,
          237,
          238,
          239,
          240,
          241,
          242,
          243,
          244,
          245,
          246,
          247,
          248,
          249,
          250,
          251,
          252,
          253,
          254,
          255,
          256,
          257,
          258
        ],
        "AcquisitionTime": [
          "170341.392500",
          "170343.400000",
          "170345.407500",
          "170347.417500",
          "170349.425000",
          "170351.432500",
          "170353.440000",
          "170355.447500",
          "170357.457500",
          "170359.465000",
          "170401.472500",
          "170403.480000",
          "170405.490000",
          "170407.497500",
          "170409.505000",
          "170411.512500",
          "170413.520000",
          "170415.530000",
          "170417.537500",
          "170419.545000",
          "170421.552500",
          "170423.560000",
          "170425.570000",
          "170427.577500",
          "170429.585000",
          "170431.592500",
          "170433.602500",
          "170435.610000",
          "170437.617500",
          "170439.625000",
          "170441.632500",
          "170443.642500",
          "170445.650000",
          "170447.657500",
          "170449.665000",
          "170451.672500",
          "170453.682500",
          "170455.690000",
          "170457.697500",
          "170459.705000",
          "170501.715000",
          "170503.722500",
          "170505.730000",
          "170507.737500",
          "170509.745000",
          "170511.755000",
          "170513.762500",
          "170515.770000",
          "170517.777500",
          "170519.785000",
          "170521.795000",
          "170523.802500",
          "170525.810000",
          "170527.817500",
          "170529.825000",
          "170531.835000",
          "170533.842500",
          "170535.850000",
          "170537.857500",
          "170539.867500",
          "170541.875000",
          "170543.882500",
          "170545.890000",
          "170547.897500",
          "170549.907500",
          "170551.915000",
          "170553.922500",
          "170555.930000",
          "170557.937500",
          "170559.947500",
          "170601.955000",
          "170603.962500",
          "170605.970000",
          "170607.980000",
          "170609.987500",
          "170611.995000",
          "170614.002500",
          "170616.010000",
          "170618.020000",
          "170620.027500",
          "170622.035000",
          "170624.042500",
          "170626.050000",
          "170628.060000",
          "170630.067500",
          "170632.075000",
          "170634.082500",
          "170636.092500",
          "170638.100000",
          "170640.107500",
          "170642.115000",
          "170644.122500",
          "170646.132500",
          "170648.140000",
          "170650.147500",
          "170652.155000",
          "170654.162500",
          "170656.172500",
          "170658.180000",
          "170700.187500",
          "170702.195000",
          "170704.202500",
          "170706.212500",
          "170708.220000",
          "170710.227500",
          "170712.235000",
          "170714.245000",
          "170716.252500",
          "170718.260000",
          "170720.267500",
          "170722.275000",
          "170724.285000",
          "170726.292500",
          "170728.300000",
          "170730.307500",
          "170732.315000",
          "170734.325000",
          "170736.332500",
          "170738.340000",
          "170740.347500",
          "170742.357500",
          "170744.365000",
          "170746.372500",
          "170748.380000",
          "170750.387500",
          "170752.397500",
          "170754.405000",
          "170756.412500",
          "170758.420000",
          "170800.427500",
          "170802.437500",
          "170804.445000",
          "170806.452500",
          "170808.460000",
          "170810.470000",
          "170812.477500",
          "170814.485000",
          "170816.492500",
          "170818.500000",
          "170820.510000",
          "170822.517500",
          "170824.525000",
          "170826.532500",
          "170828.540000",
          "170830.550000",
          "170832.557500",
          "170834.565000",
          "170836.572500",
          "170838.580000",
          "170840.590000",
          "170842.597500",
          "170844.605000",
          "170846.612500",
          "170848.622500",
          "170850.630000",
          "170852.637500",
          "170854.645000",
          "170856.652500",
          "170858.662500",
          "170900.670000",
          "170902.677500",
          "170904.685000",
          "170906.692500",
          "170908.702500",
          "170910.710000",
          "170912.717500",
          "170914.725000",
          "170916.735000",
          "170918.742500",
          "170920.750000",
          "170922.757500",
          "170924.765000",
          "170926.775000",
          "170928.782500",
          "170930.790000",
          "170932.797500",
          "170934.805000",
          "170936.815000",
          "170938.822500",
          "170940.830000",
          "170942.837500",
          "170944.847500",
          "170946.855000",
          "170948.862500",
          "170950.870000",
          "170952.877500",
          "170954.887500",
          "170956.895000",
          "170958.902500",
          "171000.910000",
          "171002.917500",
          "171004.927500",
          "171006.935000",
          "171008.942500",
          "171010.950000",
          "171012.957500",
          "171014.967500",
          "171016.975000",
          "171018.982500",
          "171020.990000",
          "171023.000000",
          "171025.007500",
          "171027.015000",
          "171029.022500",
          "171031.030000",
          "171033.040000",
          "171035.047500",
          "171037.055000",
          "171039.062500",
          "171041.070000",
          "171043.080000",
          "171045.087500",
          "171047.095000",
          "171049.102500",
          "171051.112500",
          "171053.120000",
          "171055.127500",
          "171057.135000",
          "171059.142500",
          "171101.152500",
          "171103.160000",
          "171105.167500",
          "171107.175000",
          "171109.182500",
          "171111.192500",
          "171113.200000",
          "171115.207500",
          "171117.215000",
          "171119.225000",
          "171121.232500",
          "171123.240000",
          "171125.247500",
          "171127.255000",
          "171129.265000",
          "171131.272500",
          "171133.280000",
          "171135.287500",
          "171137.295000",
          "171139.305000",
          "171141.312500",
          "171143.320000",
          "171145.327500",
          "171147.335000",
          "171149.345000",
          "171151.352500",
          "171153.360000",
          "171155.367500",
          "171157.377500",
          "171159.385000",
          "171201.392500",
          "171203.400000",
          "171205.407500",
          "171207.417500",
          "171209.425000",
          "171211.432500",
          "171213.440000",
          "171215.447500",
          "171217.457500"
        ],
        "ContentTime": [
          "170434.187000",
          "170434.187000",
          "170434.187000",
          "170434.187000",
          "170434.187000",
          "170434.187000",
          "170434.187000",
          "170434.203000",
          "170434.203000",
          "170434.203000",
          "170434.203000",
          "170434.218000",
          "170434.218000",
          "170434.218000",
          "170434.218000",
          "170434.218000",
          "170434.218000",
          "170434.218000",
          "170434.234000",
          "170434.234000",
          "170434.234000",
          "170434.234000",
          "170434.234000",
          "170434.234000",
          "170434.234000",
          "170434.250000",
          "170514.171000",
          "170514.171000",
          "170514.187000",
          "170514.187000",
          "170514.187000",
          "170514.187000",
          "170514.187000",
          "170514.187000",
          "170514.187000",
          "170514.203000",
          "170514.203000",
          "170514.203000",
          "170514.203000",
          "170514.203000",
          "170514.203000",
          "170514.203000",
          "170514.203000",
          "170514.218000",
          "170514.218000",
          "170514.218000",
          "170554.171000",
          "170554.187000",
          "170554.187000",
          "170554.187000",
          "170554.187000",
          "170554.187000",
          "170554.187000",
          "170554.187000",
          "170554.187000",
          "170554.203000",
          "170554.203000",
          "170554.203000",
          "170554.203000",
          "170554.203000",
          "170554.203000",
          "170554.203000",
          "170554.218000",
          "170554.218000",
          "170554.218000",
          "170554.218000",
          "170634.171000",
          "170634.171000",
          "170634.187000",
          "170634.187000",
          "170634.187000",
          "170634.187000",
          "170634.187000",
          "170634.187000",
          "170634.187000",
          "170634.203000",
          "170634.203000",
          "170634.203000",
          "170634.203000",
          "170634.203000",
          "170634.203000",
          "170634.203000",
          "170634.218000",
          "170634.218000",
          "170634.218000",
          "170634.218000",
          "170714.171000",
          "170714.187000",
          "170714.187000",
          "170714.187000",
          "170714.187000",
          "170714.187000",
          "170714.187000",
          "170714.187000",
          "170714.187000",
          "170714.203000",
          "170714.203000",
          "170714.203000",
          "170714.203000",
          "170714.203000",
          "170714.203000",
          "170714.203000",
          "170714.218000",
          "170714.218000",
          "170714.218000",
          "170714.218000",
          "170754.171000",
          "170754.171000",
          "170754.187000",
          "170754.187000",
          "170754.187000",
          "170754.187000",
          "170754.187000",
          "170754.187000",
          "170754.187000",
          "170754.203000",
          "170754.203000",
          "170754.203000",
          "170754.203000",
          "170754.203000",
          "170754.203000",
          "170754.203000",
          "170754.218000",
          "170754.218000",
          "170754.218000",
          "170754.218000",
          "170834.171000",
          "170834.171000",
          "170834.187000",
          "170834.187000",
          "170834.187000",
          "170834.187000",
          "170834.187000",
          "170834.187000",
          "170834.203000",
          "170834.203000",
          "170834.203000",
          "170834.203000",
          "170834.203000",
          "170834.218000",
          "170834.218000",
          "170834.218000",
          "170834.218000",
          "170834.218000",
          "170834.218000",
          "170834.218000",
          "170914.171000",
          "170914.187000",
          "170914.187000",
          "170914.187000",
          "170914.187000",
          "170914.187000",
          "170914.187000",
          "170914.187000",
          "170914.187000",
          "170914.203000",
          "170914.203000",
          "170914.203000",
          "170914.203000",
          "170914.203000",
          "170914.203000",
          "170914.203000",
          "170914.218000",
          "170914.218000",
          "170914.218000",
          "170914.218000",
          "170954.171000",
          "170954.171000",
          "170954.187000",
          "170954.187000",
          "170954.187000",
          "170954.187000",
          "170954.187000",
          "170954.187000",
          "170954.187000",
          "170954.203000",
          "170954.203000",
          "170954.203000",
          "170954.203000",
          "170954.203000",
          "170954.203000",
          "170954.203000",
          "170954.218000",
          "170954.218000",
          "170954.218000",
          "170954.218000",
          "171034.171000",
          "171034.171000",
          "171034.187000",
          "171034.187000",
          "171034.187000",
          "171034.187000",
          "171034.187000",
          "171034.187000",
          "171034.187000",
          "171034.203000",
          "171034.203000",
          "171034.203000",
          "171034.203000",
          "171034.203000",
          "171034.203000",
          "171034.203000",
          "171034.218000",
          "171034.218000",
          "171034.218000",
          "171034.218000",
          "171114.171000",
          "171114.187000",
          "171114.187000",
          "171114.187000",
          "171114.187000",
          "171114.187000",
          "171114.187000",
          "171114.187000",
          "171114.187000",
          "171114.203000",
          "171114.203000",
          "171114.203000",
          "171114.203000",
          "171114.203000",
          "171114.203000",
          "171114.203000",
          "171114.218000",
          "171114.218000",
          "171114.218000",
          "171114.218000",
          "171154.171000",
          "171154.171000",
          "171154.187000",
          "171154.187000",
          "171154.187000",
          "171154.187000",
          "171154.187000",
          "171154.187000",
          "171154.187000",
          "171154.203000",
          "171154.203000",
          "171154.203000",
          "171154.203000",
          "171154.203000",
          "171154.203000",
          "171154.203000",
          "171154.218000",
          "171154.218000",
          "171154.218000",
          "171154.218000",
          "171217.406000",
          "171217.406000",
          "171217.406000",
          "171217.406000",
          "171217.421000",
          "171217.421000",
          "171217.421000",
          "171217.421000",
          "171217.421000",
          "171217.421000",
          "171217.421000",
          "171217.421000"
        ],
        "InstanceCreationTime": [
          "170434.187000",
          "170434.187000",
          "170434.187000",
          "170434.187000",
          "170434.187000",
          "170434.187000",
          "170434.187000",
          "170434.203000",
          "170434.203000",
          "170434.203000",
          "170434.203000",
          "170434.218000",
          "170434.218000",
          "170434.218000",
          "170434.218000",
          "170434.218000",
          "170434.218000",
          "170434.218000",
          "170434.234000",
          "170434.234000",
          "170434.234000",
          "170434.234000",
          "170434.234000",
          "170434.234000",
          "170434.234000",
          "170434.250000",
          "170514.171000",
          "170514.171000",
          "170514.187000",
          "170514.187000",
          "170514.187000",
          "170514.187000",
          "170514.187000",
          "170514.187000",
          "170514.187000",
          "170514.203000",
          "170514.203000",
          "170514.203000",
          "170514.203000",
          "170514.203000",
          "170514.203000",
          "170514.203000",
          "170514.203000",
          "170514.218000",
          "170514.218000",
          "170514.218000",
          "170554.171000",
          "170554.187000",
          "170554.187000",
          "170554.187000",
          "170554.187000",
          "170554.187000",
          "170554.187000",
          "170554.187000",
          "170554.187000",
          "170554.203000",
          "170554.203000",
          "170554.203000",
          "170554.203000",
          "170554.203000",
          "170554.203000",
          "170554.203000",
          "170554.218000",
          "170554.218000",
          "170554.218000",
          "170554.218000",
          "170634.171000",
          "170634.171000",
          "170634.187000",
          "170634.187000",
          "170634.187000",
          "170634.187000",
          "170634.187000",
          "170634.187000",
          "170634.187000",
          "170634.203000",
          "170634.203000",
          "170634.203000",
          "170634.203000",
          "170634.203000",
          "170634.203000",
          "170634.203000",
          "170634.218000",
          "170634.218000",
          "170634.218000",
          "170634.218000",
          "170714.171000",
          "170714.187000",
          "170714.187000",
          "170714.187000",
          "170714.187000",
          "170714.187000",
          "170714.187000",
          "170714.187000",
          "170714.187000",
          "170714.203000",
          "170714.203000",
          "170714.203000",
          "170714.203000",
          "170714.203000",
          "170714.203000",
          "170714.203000",
          "170714.218000",
          "170714.218000",
          "170714.218000",
          "170714.218000",
          "170754.171000",
          "170754.171000",
          "170754.187000",
          "170754.187000",
          "170754.187000",
          "170754.187000",
          "170754.187000",
          "170754.187000",
          "170754.187000",
          "170754.203000",
          "170754.203000",
          "170754.203000",
          "170754.203000",
          "170754.203000",
          "170754.203000",
          "170754.203000",
          "170754.218000",
          "170754.218000",
          "170754.218000",
          "170754.218000",
          "170834.171000",
          "170834.171000",
          "170834.187000",
          "170834.187000",
          "170834.187000",
          "170834.187000",
          "170834.187000",
          "170834.187000",
          "170834.203000",
          "170834.203000",
          "170834.203000",
          "170834.203000",
          "170834.203000",
          "170834.218000",
          "170834.218000",
          "170834.218000",
          "170834.218000",
          "170834.218000",
          "170834.218000",
          "170834.218000",
          "170914.171000",
          "170914.187000",
          "170914.187000",
          "170914.187000",
          "170914.187000",
          "170914.187000",
          "170914.187000",
          "170914.187000",
          "170914.187000",
          "170914.203000",
          "170914.203000",
          "170914.203000",
          "170914.203000",
          "170914.203000",
          "170914.203000",
          "170914.203000",
          "170914.218000",
          "170914.218000",
          "170914.218000",
          "170914.218000",
          "170954.171000",
          "170954.171000",
          "170954.187000",
          "170954.187000",
          "170954.187000",
          "170954.187000",
          "170954.187000",
          "170954.187000",
          "170954.187000",
          "170954.203000",
          "170954.203000",
          "170954.203000",
          "170954.203000",
          "170954.203000",
          "170954.203000",
          "170954.203000",
          "170954.218000",
          "170954.218000",
          "170954.218000",
          "170954.218000",
          "171034.171000",
          "171034.171000",
          "171034.187000",
          "171034.187000",
          "171034.187000",
          "171034.187000",
          "171034.187000",
          "171034.187000",
          "171034.187000",
          "171034.203000",
          "171034.203000",
          "171034.203000",
          "171034.203000",
          "171034.203000",
          "171034.203000",
          "171034.203000",
          "171034.218000",
          "171034.218000",
          "171034.218000",
          "171034.218000",
          "171114.171000",
          "171114.187000",
          "171114.187000",
          "171114.187000",
          "171114.187000",
          "171114.187000",
          "171114.187000",
          "171114.187000",
          "171114.187000",
          "171114.203000",
          "171114.203000",
