{
  "aor": 0.0005198437499999999,
  "aqi": 0.015155737109375001,
  "bids_meta": {
    "AcquisitionMatrixPE": 68,
    "AcquisitionNumber": 1,
    "AcquisitionTime": "16:07:19.520000",
    "BandwidthPerPixelPhaseEncode": 31.289,
    "BaseResolution": 68,
    "CogAtlasID": "TODO",
    "CoilString": "C:HEA;HEP",
    "ConversionSoftware": "dcm2niix",
    "ConversionSoftwareVersion": "v1.0.20190902",
    "DerivedVendorReportedEchoSpacing": 0.000470002,
    "DeviceSerialNumber": "35450",
    "DwellTime": 3e-06,
    "EchoTime": 0.023,
    "EffectiveEchoSpacing": 0.000470002,
    "FlipAngle": 76,
    "ImageOrientationPatientDICOM": [
      0.999123,
      -0.00870641,
      -0.0409606,
      -2.72923e-08,
      0.978148,
      -0.207912
    ],
    "ImageType": [
      "ORIGINAL",
      "PRIMARY",
      "M",
      "ND",
      "MOSAIC"
    ],
    "ImagingFrequency": 123.219,
    "InPlanePhaseEncodingDirectionDICOM": "COL",
    "InstitutionAddress": "Univeristy_Ave._197_Newark_North_East_US_07102-1814",
    "InstitutionName": "RUBIC",
    "InstitutionalDepartmentName": "Department",
    "MRAcquisitionType": "2D",
    "MagneticFieldStrength": 3,
    "Manufacturer": "Siemens",
    "ManufacturersModelName": "TrioTim",
    "Modality": "MR",
    "PartialFourier": 1,
    "PatientPosition": "HFS",
    "PercentPhaseFOV": 100,
    "PhaseEncodingDirection": "j-",
    "PhaseEncodingSteps": 68,
    "PhaseResolution": 1,
    "PixelBandwidth": 2451,
    "ProcedureStepDescription": "Krekelberg_David",
    "ProtocolName": "ep2d_bold_CardGameEPI_1",
    "PulseSequenceDetails": "%SiemensSeq%_ep2d_bold",
    "ReceiveCoilName": "HeadMatrix",
    "ReconMatrixPE": 68,
    "RepetitionTime": 2,
    "SAR": 0.174513,
    "ScanOptions": "FS",
    "ScanningSequence": "EP",
    "SequenceName": "_epfid2d1_68",
    "SequenceVariant": "SK",
    "SeriesDescription": "ep2d_bold_CardGameEPI_1",
    "SeriesNumber": 6,
    "ShimSetting": [
      1906,
      -578,
      -7525,
      680,
      90,
      -108,
      -493,
      96
    ],
    "SliceThickness": 2.5,
    "SliceTiming": [
      1.9525,
      1.8975,
      1.84,
      1.785,
      1.73,
      1.675,
      1.6175,
      1.5625,
      1.5075,
      1.45,
      1.395,
      1.34,
      1.2825,
      1.2275,
      1.1725,
      1.1175,
      1.06,
      1.005,
      0.95,
      0.8925,
      0.8375,
      0.7825,
      0.725,
      0.67,
      0.615,
      0.5575,
      0.5025,
      0.4475,
      0.3925,
      0.335,
      0.28,
      0.225,
      0.1675,
      0.1125,
      0.0575,
      0
    ],
    "SoftwareVersions": "syngo_MR_B19",
    "SpacingBetweenSlices": 3,
    "StationName": "MRC35450",
    "TaskName": "cardgame",
    "TotalReadoutTime": 0.0314901,
    "TxRefAmp": 341.399,
    "dataset": "<unset>",
    "dcmmeta_affine": [
      [
        -2.997368574142456,
        -8.187704736428714e-08,
        -0.12562695145606995,
        105.46493530273438
      ],
      [
        0.026119230315089226,
        2.9344427585601807,
        -0.6231879591941833,
        -69.88153839111328
      ],
      [
        -0.12288171797990799,
        0.6237350702285767,
        2.9318687915802,
        -43.985408782958984
      ],
      [
        0.0,
        0.0,
        0.0,
        1.0
      ]
    ],
    "dcmmeta_reorient_transform": [
      [
        0.0,
        -1.0,
        0.0,
        67.0
      ],
      [
        1.0,
        0.0,
        0.0,
        0.0
      ],
      [
        0.0,
        0.0,
        1.0,
        0.0
      ],
      [
        0.0,
        0.0,
        0.0,
        1.0
      ]
    ],
    "dcmmeta_shape": [
      68,
      68,
      36,
      258
    ],
    "dcmmeta_slice_dim": 2,
    "dcmmeta_version": 0.6,
    "global": {
      "const": {
        "AcquisitionMatrix": [
          68,
          0,
          0,
          68
        ],
        "AngioFlag": "N",
        "BitsAllocated": 16,
        "BitsStored": 12,
        "Columns": 408,
        "EchoNumbers": 1,
        "EchoTime": 23.0,
        "EchoTrainLength": 1,
        "FlipAngle": 76.0,
        "HighBit": 11,
        "ImageOrientationPatient": [
          0.99912283025679,
          -0.0087064102515,
          -0.0409605722641,
          -2.729235e-08,
          0.97814760207144,
          -0.2079116845247
        ],
        "ImagePositionPatient": [
          -615.01755943455,
          -621.14113569082,
          124.72968962399
        ],
        "ImageType": [
          "ORIGINAL",
          "PRIMARY",
          "M",
          "ND",
          "MOSAIC"
        ],
        "ImagedNucleus": "1H",
        "ImagingFrequency": 123.218513,
        "InPlanePhaseEncodingDirection": "COL",
        "MRAcquisitionType": "2D",
        "MagneticFieldStrength": 3.0,
        "Manufacturer": "SIEMENS",
        "ManufacturerModelName": "TrioTim",
        "Modality": "MR",
        "NumberOfAverages": 1.0,
        "NumberOfPhaseEncodingSteps": 68,
        "PercentPhaseFieldOfView": 100.0,
        "PercentSampling": 100.0,
        "PerformedProcedureStepStartTime": "154339.687000",
        "PhotometricInterpretation": "MONOCHROME2",
        "PixelBandwidth": 2451.0,
        "PixelRepresentation": 0,
        "PixelSpacing": [
          3.0,
          3.0
        ],
        "ProtocolName": "ep2d_bold_CardGameEPI_1",
        "RepetitionTime": 2000.0,
        "Rows": 408,
        "SAR": 0.17451299067715,
        "SamplesPerPixel": 1,
        "ScanOptions": "FS",
        "ScanningSequence": "EP",
        "SequenceName": "*epfid2d1_68",
        "SequenceVariant": "SK",
        "SeriesDescription": "ep2d_bold_CardGameEPI_1",
        "SeriesNumber": 6,
        "SeriesTime": "160754.171000",
        "SliceLocation": -32.886452164091,
        "SliceThickness": 2.5,
        "SmallestImagePixelValue": 0,
        "SoftwareVersions": "syngo MR B19",
        "SpacingBetweenSlices": 3.0000000542819,
        "SpecificCharacterSet": "ISO_IR 100",
        "StudyID": "1",
        "StudyTime": "154339.640000",
        "TransmitCoilName": "Body",
        "VariableFlipAngleFlag": "N",
        "WindowCenterWidthExplanation": "Algo1",
        "dBdt": 0.0
      },
      "slices": {}
    },
    "modality": "bold",
    "run_id": 1,
    "subject_id": "214",
    "task_id": "cardgame",
    "time": {
      "samples": {
        "AcquisitionNumber": [
          1,
          2,
          3,
          4,
          5,
          6,
          7,
          8,
          9,
          10,
          11,
          12,
          13,
          14,
          15,
          16,
          17,
          18,
          19,
          20,
          21,
          22,
          23,
          24,
          25,
          26,
          27,
          28,
          29,
          30,
          31,
          32,
          33,
          34,
          35,
          36,
          37,
          38,
          39,
          40,
          41,
          42,
          43,
          44,
          45,
          46,
          47,
          48,
          49,
          50,
          51,
          52,
          53,
          54,
          55,
          56,
          57,
          58,
          59,
          60,
          61,
          62,
          63,
          64,
          65,
          66,
          67,
          68,
          69,
          70,
          71,
          72,
          73,
          74,
          75,
          76,
          77,
          78,
          79,
          80,
          81,
          82,
          83,
          84,
          85,
          86,
          87,
          88,
          89,
          90,
          91,
          92,
          93,
          94,
          95,
          96,
          97,
          98,
          99,
          100,
          101,
          102,
          103,
          104,
          105,
          106,
          107,
          108,
          109,
          110,
          111,
          112,
          113,
          114,
          115,
          116,
          117,
          118,
          119,
          120,
          121,
          122,
          123,
          124,
          125,
          126,
          127,
          128,
          129,
          130,
          131,
          132,
          133,
          134,
          135,
          136,
          137,
          138,
          139,
          140,
          141,
          142,
          143,
          144,
          145,
          146,
          147,
          148,
          149,
          150,
          151,
          152,
          153,
          154,
          155,
          156,
          157,
          158,
          159,
          160,
          161,
          162,
          163,
          164,
          165,
          166,
          167,
          168,
          169,
          170,
          171,
          172,
          173,
          174,
          175,
          176,
          177,
          178,
          179,
          180,
          181,
          182,
          183,
          184,
          185,
          186,
          187,
          188,
          189,
          190,
          191,
          192,
          193,
          194,
          195,
          196,
          197,
          198,
          199,
          200,
          201,
          202,
          203,
          204,
          205,
          206,
          207,
          208,
          209,
          210,
          211,
          212,
          213,
          214,
          215,
          216,
          217,
          218,
          219,
          220,
          221,
          222,
          223,
          224,
          225,
          226,
          227,
          228,
          229,
          230,
          231,
          232,
          233,
          234,
          235,
          236,
          237,
          238,
          239,
          240,
          241,
          242,
          243,
          244,
          245,
          246,
          247,
          248,
          249,
          250,
          251,
          252,
          253,
          254,
          255,
          256,
          257,
          258
        ],
        "AcquisitionTime": [
          "160719.520000",
          "160721.527500",
          "160723.537500",
          "160725.545000",
          "160727.552500",
          "160729.560000",
          "160731.567500",
          "160733.577500",
          "160735.585000",
          "160737.592500",
          "160739.600000",
          "160741.607500",
          "160743.617500",
          "160745.625000",
          "160747.632500",
          "160749.640000",
          "160751.650000",
          "160753.657500",
          "160755.665000",
          "160757.672500",
          "160759.680000",
          "160801.690000",
          "160803.697500",
          "160805.705000",
          "160807.712500",
          "160809.720000",
          "160811.730000",
          "160813.737500",
          "160815.745000",
          "160817.752500",
          "160819.760000",
          "160821.770000",
          "160823.777500",
          "160825.785000",
          "160827.792500",
          "160829.802500",
          "160831.810000",
          "160833.817500",
          "160835.825000",
          "160837.832500",
          "160839.842500",
          "160841.850000",
          "160843.857500",
          "160845.865000",
          "160847.872500",
          "160849.882500",
          "160851.890000",
          "160853.897500",
          "160855.905000",
          "160857.915000",
          "160859.922500",
          "160901.930000",
          "160903.937500",
          "160905.945000",
          "160907.955000",
          "160909.962500",
          "160911.970000",
          "160913.977500",
          "160915.985000",
          "160917.995000",
          "160920.002500",
          "160922.010000",
          "160924.017500",
          "160926.027500",
          "160928.035000",
          "160930.042500",
          "160932.050000",
          "160934.057500",
          "160936.067500",
          "160938.075000",
          "160940.082500",
          "160942.090000",
          "160944.097500",
          "160946.107500",
          "160948.115000",
          "160950.122500",
          "160952.130000",
          "160954.137500",
          "160956.147500",
          "160958.155000",
          "161000.162500",
          "161002.170000",
          "161004.180000",
          "161006.187500",
          "161008.195000",
          "161010.202500",
          "161012.210000",
          "161014.220000",
          "161016.227500",
          "161018.235000",
          "161020.242500",
          "161022.250000",
          "161024.260000",
          "161026.267500",
          "161028.275000",
          "161030.282500",
          "161032.292500",
          "161034.300000",
          "161036.307500",
          "161038.315000",
          "161040.322500",
          "161042.332500",
          "161044.340000",
          "161046.347500",
          "161048.355000",
          "161050.362500",
          "161052.372500",
          "161054.380000",
          "161056.387500",
          "161058.395000",
          "161100.405000",
          "161102.412500",
          "161104.420000",
          "161106.427500",
          "161108.435000",
          "161110.445000",
          "161112.452500",
          "161114.460000",
          "161116.467500",
          "161118.475000",
          "161120.485000",
          "161122.492500",
          "161124.500000",
          "161126.507500",
          "161128.515000",
          "161130.525000",
          "161132.532500",
          "161134.540000",
          "161136.547500",
          "161138.557500",
          "161140.565000",
          "161142.572500",
          "161144.580000",
          "161146.587500",
          "161148.597500",
          "161150.605000",
          "161152.612500",
          "161154.620000",
          "161156.627500",
          "161158.637500",
          "161200.645000",
          "161202.652500",
          "161204.660000",
          "161206.670000",
          "161208.677500",
          "161210.685000",
          "161212.692500",
          "161214.700000",
          "161216.710000",
          "161218.717500",
          "161220.725000",
          "161222.732500",
          "161224.740000",
          "161226.750000",
          "161228.757500",
          "161230.765000",
          "161232.772500",
          "161234.782500",
          "161236.790000",
          "161238.797500",
          "161240.805000",
          "161242.812500",
          "161244.822500",
          "161246.830000",
          "161248.837500",
          "161250.845000",
          "161252.852500",
          "161254.862500",
          "161256.870000",
          "161258.877500",
          "161300.885000",
          "161302.895000",
          "161304.902500",
          "161306.910000",
          "161308.917500",
          "161310.925000",
          "161312.935000",
          "161314.942500",
          "161316.950000",
          "161318.957500",
          "161320.965000",
          "161322.975000",
          "161324.982500",
          "161326.990000",
          "161328.997500",
          "161331.005000",
          "161333.015000",
          "161335.022500",
          "161337.030000",
          "161339.037500",
          "161341.047500",
          "161343.055000",
          "161345.062500",
          "161347.070000",
          "161349.077500",
          "161351.087500",
          "161353.095000",
          "161355.102500",
          "161357.110000",
          "161359.117500",
          "161401.127500",
          "161403.135000",
          "161405.142500",
          "161407.150000",
          "161409.160000",
          "161411.167500",
          "161413.175000",
          "161415.182500",
          "161417.190000",
          "161419.200000",
          "161421.207500",
          "161423.215000",
          "161425.222500",
          "161427.230000",
          "161429.240000",
          "161431.247500",
          "161433.255000",
          "161435.262500",
          "161437.272500",
          "161439.280000",
          "161441.287500",
          "161443.295000",
          "161445.302500",
          "161447.312500",
          "161449.320000",
          "161451.327500",
          "161453.335000",
          "161455.342500",
          "161457.352500",
          "161459.360000",
          "161501.367500",
          "161503.375000",
          "161505.382500",
          "161507.392500",
          "161509.400000",
          "161511.407500",
          "161513.415000",
          "161515.425000",
          "161517.432500",
          "161519.440000",
          "161521.447500",
          "161523.455000",
          "161525.465000",
          "161527.472500",
          "161529.480000",
          "161531.487500",
          "161533.495000",
          "161535.505000",
          "161537.512500",
          "161539.520000",
          "161541.527500",
          "161543.537500",
          "161545.545000",
          "161547.552500",
          "161549.560000",
          "161551.567500",
          "161553.577500",
          "161555.585000"
        ],
        "ContentTime": [
          "160754.187000",
          "160754.187000",
          "160754.203000",
          "160754.203000",
          "160754.203000",
          "160754.203000",
          "160754.203000",
          "160754.218000",
          "160754.218000",
          "160754.218000",
          "160754.218000",
          "160754.218000",
          "160754.218000",
          "160754.218000",
          "160754.234000",
          "160754.234000",
          "160754.234000",
          "160834.171000",
          "160834.171000",
          "160834.187000",
          "160834.187000",
          "160834.187000",
          "160834.187000",
          "160834.187000",
          "160834.187000",
          "160834.187000",
          "160834.203000",
          "160834.203000",
          "160834.203000",
          "160834.203000",
          "160834.203000",
          "160834.203000",
          "160834.218000",
          "160834.218000",
          "160834.218000",
          "160834.218000",
          "160834.218000",
          "160914.171000",
          "160914.171000",
          "160914.187000",
          "160914.187000",
          "160914.187000",
          "160914.187000",
          "160914.187000",
          "160914.187000",
          "160914.187000",
          "160914.203000",
          "160914.203000",
          "160914.203000",
          "160914.203000",
          "160914.203000",
          "160914.203000",
          "160914.203000",
          "160914.218000",
          "160914.218000",
          "160914.218000",
          "160914.218000",
          "160954.171000",
          "160954.171000",
          "160954.187000",
          "160954.187000",
          "160954.187000",
          "160954.187000",
          "160954.187000",
          "160954.187000",
          "160954.187000",
          "160954.203000",
          "160954.203000",
          "160954.203000",
          "160954.203000",
          "160954.203000",
          "160954.203000",
          "160954.218000",
          "160954.218000",
          "160954.218000",
          "160954.218000",
          "160954.218000",
          "161034.171000",
          "161034.171000",
          "161034.187000",
          "161034.187000",
          "161034.187000",
          "161034.187000",
          "161034.187000",
          "161034.187000",
          "161034.187000",
          "161034.187000",
          "161034.203000",
          "161034.203000",
          "161034.203000",
          "161034.203000",
          "161034.203000",
          "161034.203000",
          "161034.203000",
          "161034.218000",
          "161034.218000",
          "161034.218000",
          "161114.171000",
          "161114.171000",
          "161114.187000",
          "161114.187000",
          "161114.187000",
          "161114.187000",
          "161114.187000",
          "161114.203000",
          "161114.203000",
          "161114.203000",
          "161114.203000",
          "161114.203000",
          "161114.203000",
          "161114.203000",
          "161114.203000",
          "161114.218000",
          "161114.218000",
          "161114.218000",
          "161114.218000",
          "161114.218000",
          "161154.171000",
          "161154.171000",
          "161154.187000",
          "161154.187000",
          "161154.187000",
          "161154.187000",
          "161154.187000",
          "161154.187000",
          "161154.187000",
          "161154.203000",
          "161154.203000",
          "161154.203000",
          "161154.203000",
          "161154.203000",
          "161154.203000",
          "161154.203000",
          "161154.218000",
          "161154.218000",
          "161154.218000",
          "161154.218000",
          "161234.171000",
          "161234.171000",
          "161234.187000",
          "161234.187000",
          "161234.187000",
          "161234.187000",
          "161234.187000",
          "161234.187000",
          "161234.187000",
          "161234.203000",
          "161234.203000",
          "161234.203000",
          "161234.203000",
          "161234.203000",
          "161234.203000",
          "161234.203000",
          "161234.218000",
          "161234.218000",
          "161234.218000",
          "161234.218000",
          "161314.171000",
          "161314.187000",
          "161314.187000",
          "161314.187000",
          "161314.187000",
          "161314.203000",
          "161314.203000",
          "161314.203000",
          "161314.203000",
          "161314.203000",
          "161314.203000",
          "161314.203000",
          "161314.218000",
          "161314.218000",
          "161314.218000",
          "161314.234000",
          "161314.234000",
          "161314.234000",
          "161314.234000",
          "161314.250000",
          "161354.171000",
          "161354.187000",
          "161354.187000",
          "161354.187000",
          "161354.187000",
          "161354.187000",
          "161354.187000",
          "161354.187000",
          "161354.203000",
          "161354.203000",
          "161354.203000",
          "161354.203000",
          "161354.203000",
          "161354.203000",
          "161354.203000",
          "161354.203000",
          "161354.218000",
          "161354.218000",
          "161354.218000",
          "161354.218000",
          "161434.171000",
          "161434.171000",
          "161434.187000",
          "161434.187000",
          "161434.187000",
          "161434.187000",
          "161434.187000",
          "161434.187000",
          "161434.187000",
          "161434.203000",
          "161434.203000",
          "161434.203000",
          "161434.203000",
          "161434.203000",
          "161434.203000",
          "161434.203000",
          "161434.203000",
          "161434.218000",
          "161434.218000",
          "161434.218000",
          "161514.171000",
          "161514.171000",
          "161514.187000",
          "161514.187000",
          "161514.187000",
          "161514.203000",
          "161514.203000",
          "161514.203000",
          "161514.203000",
          "161514.203000",
          "161514.203000",
          "161514.203000",
          "161514.218000",
          "161514.218000",
          "161514.218000",
          "161514.234000",
          "161514.234000",
          "161514.234000",
          "161514.234000",
          "161514.234000",
          "161554.171000",
          "161554.171000",
          "161554.187000",
          "161554.187000",
          "161554.187000",
          "161554.187000",
          "161554.187000",
          "161554.187000",
          "161554.187000",
          "161554.203000",
          "161554.203000",
          "161554.203000",
          "161554.203000",
          "161554.203000",
          "161554.203000",
          "161554.203000",
          "161554.218000",
          "161554.218000",
          "161554.218000",
          "161554.218000",
          "161555.000000"
        ],
        "InstanceCreationTime": [
          "160754.187000",
          "160754.187000",
          "160754.203000",
          "160754.203000",
          "160754.203000",
          "160754.203000",
          "160754.203000",
          "160754.218000",
          "160754.218000",
          "160754.218000",
          "160754.218000",
          "160754.218000",
          "160754.218000",
          "160754.218000",
          "160754.234000",
          "160754.234000",
          "160754.234000",
          "160834.171000",
          "160834.171000",
          "160834.187000",
          "160834.187000",
          "160834.187000",
          "160834.187000",
          "160834.187000",
          "160834.187000",
          "160834.187000",
          "160834.203000",
          "160834.203000",
          "160834.203000",
          "160834.203000",
          "160834.203000",
          "160834.203000",
          "160834.218000",
          "160834.218000",
          "160834.218000",
          "160834.218000",
          "160834.218000",
          "160914.171000",
          "160914.171000",
          "160914.187000",
          "160914.187000",
          "160914.187000",
          "160914.187000",
          "160914.187000",
          "160914.187000",
          "160914.187000",
          "160914.203000",
          "160914.203000",
          "160914.203000",
          "160914.203000",
          "160914.203000",
          "160914.203000",
          "160914.203000",
          "160914.218000",
          "160914.218000",
          "160914.218000",
          "160914.218000",
          "160954.171000",
          "160954.171000",
          "160954.187000",
          "160954.187000",
          "160954.187000",
          "160954.187000",
          "160954.187000",
          "160954.187000",
          "160954.187000",
          "160954.203000",
          "160954.203000",
          "160954.203000",
          "160954.203000",
          "160954.203000",
          "160954.203000",
          "160954.218000",
          "160954.218000",
          "160954.218000",
          "160954.218000",
          "160954.218000",
          "161034.171000",
          "161034.171000",
          "161034.187000",
          "161034.187000",
          "161034.187000",
          "161034.187000",
          "161034.187000",
          "161034.187000",
          "161034.187000",
          "161034.187000",
          "161034.203000",
          "161034.203000",
          "161034.203000",
          "161034.203000",
          "161034.203000",
          "161034.203000",
          "161034.203000",
          "161034.218000",
          "161034.218000",
          "161034.218000",
          "161114.171000",
          "161114.171000",
          "161114.187000",
          "161114.187000",
          "161114.187000",
          "161114.187000",
          "161114.187000",
          "161114.203000",
          "161114.203000",
          "161114.203000",
          "161114.203000",
          "161114.203000",
          "161114.203000",
          "161114.203000",
          "161114.203000",
          "161114.218000",
          "161114.218000",
          "161114.218000",
          "161114.218000",
          "161114.218000",
          "161154.171000",
          "161154.171000",
          "161154.187000",
          "161154.187000",
          "161154.187000",
          "161154.187000",
          "161154.187000",
          "161154.187000",
          "161154.187000",
          "161154.203000",
          "161154.203000",
          "161154.203000",
          "161154.203000",
          "161154.203000",
          "161154.203000",
          "161154.203000",
          "161154.218000",
          "161154.218000",
          "161154.218000",
          "161154.218000",
          "161234.171000",
          "161234.171000",
          "161234.187000",
          "161234.187000",
          "161234.187000",
          "161234.187000",
          "161234.187000",
          "161234.187000",
          "161234.187000",
          "161234.203000",
          "161234.203000",
          "161234.203000",
          "161234.203000",
          "161234.203000",
          "161234.203000",
          "161234.203000",
          "161234.218000",
          "161234.218000",
          "161234.218000",
          "161234.218000",
          "161314.171000",
          "161314.187000",
          "161314.187000",
          "161314.187000",
          "161314.187000",
          "161314.203000",
          "161314.203000",
          "161314.203000",
          "161314.203000",
          "161314.203000",
          "161314.203000",
          "161314.203000",
          "161314.218000",
          "161314.218000",
          "161314.218000",
          "161314.234000",
          "161314.234000",
          "161314.234000",
          "161314.234000",
          "161314.250000",
          "161354.171000",
          "161354.187000",
          "161354.187000",
          "161354.187000",
          "161354.187000",
          "161354.187000",
          "161354.187000",
          "161354.187000",
          "161354.203000",
          "161354.203000",
          "161354.203000",
          "161354.203000",
          "161354.203000",
          "161354.203000",
          "161354.203000",
          "161354.203000",
          "161354.218000",
          "161354.218000",
          "161354.218000",
          "161354.218000",
          "161434.171000",
          "161434.171000",
          "161434.187000",
          "161434.187000",
          "161434.187000",
          "161434.187000",
          "161434.187000",
          "161434.187000",
          "161434.187000",
          "161434.203000",
          "161434.203000",
          "161434.203000",
          "161434.203000",
          "161434.203000",
          "161434.203000",
          "161434.203000",
          "161434.203000",
          "161434.218000",
          "161434.218000",
          "161434.218000",
          "161514.171000",
