{
  "aor": 0.000652625,
  "aqi": 0.014189836041666666,
  "bids_meta": {
    "AcquisitionMatrixPE": 68,
    "AcquisitionNumber": 1,
    "AcquisitionTime": "15:58:31.725000",
    "BandwidthPerPixelPhaseEncode": 31.289,
    "BaseResolution": 68,
    "CogAtlasID": "TODO",
    "CoilString": "C:HEA;HEP",
    "ConversionSoftware": "dcm2niix",
    "ConversionSoftwareVersion": "v1.0.20190902",
    "DerivedVendorReportedEchoSpacing": 0.000470002,
    "DeviceSerialNumber": "35450",
    "DwellTime": 3e-06,
    "EchoTime": 0.023,
    "EffectiveEchoSpacing": 0.000470002,
    "FlipAngle": 76,
    "ImageOrientationPatientDICOM": [
      0.999877,
      0.00302397,
      0.0154135,
      2.85629e-08,
      0.981293,
      -0.192522
    ],
    "ImageType": [
      "ORIGINAL",
      "PRIMARY",
      "M",
      "ND",
      "MOSAIC"
    ],
    "ImagingFrequency": 123.218,
    "InPlanePhaseEncodingDirectionDICOM": "COL",
    "InstitutionAddress": "Univeristy_Ave._197_Newark_North_East_US_07102-1814",
    "InstitutionName": "RUBIC",
    "InstitutionalDepartmentName": "Department",
    "MRAcquisitionType": "2D",
    "MagneticFieldStrength": 3,
    "Manufacturer": "Siemens",
    "ManufacturersModelName": "TrioTim",
    "Modality": "MR",
    "PartialFourier": 1,
    "PatientPosition": "HFS",
    "PercentPhaseFOV": 100,
    "PhaseEncodingDirection": "j-",
    "PhaseEncodingSteps": 68,
    "PhaseResolution": 1,
    "PixelBandwidth": 2451,
    "ProcedureStepDescription": "Krekelberg_David",
    "ProtocolName": "ep2d_bold_RestEPI_1",
    "PulseSequenceDetails": "%SiemensSeq%_ep2d_bold",
    "ReceiveCoilName": "HeadMatrix",
    "ReconMatrixPE": 68,
    "RepetitionTime": 2,
    "SAR": 0.170727,
    "ScanOptions": "FS",
    "ScanningSequence": "EP",
    "SequenceName": "_epfid2d1_68",
    "SequenceVariant": "SK",
    "SeriesDescription": "ep2d_bold_RestEPI_1",
    "SeriesNumber": 6,
    "ShimSetting": [
      1952,
      -575,
      -7515,
      585,
      232,
      222,
      -211,
      -35
    ],
    "SliceThickness": 2.5,
    "SliceTiming": [
      1.9525,
      1.8975,
      1.84,
      1.785,
      1.73,
      1.6725,
      1.6175,
      1.5625,
      1.505,
      1.45,
      1.395,
      1.3375,
      1.2825,
      1.2275,
      1.1725,
      1.115,
      1.06,
      1.005,
      0.9475,
      0.8925,
      0.8375,
      0.78,
      0.725,
      0.67,
      0.615,
      0.5575,
      0.5025,
      0.4475,
      0.39,
      0.335,
      0.28,
      0.2225,
      0.1675,
      0.1125,
      0.055,
      0
    ],
    "SoftwareVersions": "syngo_MR_B19",
    "SpacingBetweenSlices": 3,
    "StationName": "MRC35450",
    "TaskName": "rest",
    "TotalReadoutTime": 0.0314901,
    "TxRefAmp": 458.289,
    "dataset": "<unset>",
    "dcmmeta_affine": [
      [
        -2.9996299743652344,
        8.56886686051439e-08,
        0.047121934592723846,
        101.84074401855469
      ],
      [
        -0.009071922861039639,
        2.943877935409546,
        -0.5774946808815002,
        -83.34354400634766
      ],
      [
        0.0462404228746891,
        0.5775659084320068,
        2.943514823913574,
        -51.80437469482422
      ],
      [
        0.0,
        0.0,
        0.0,
        1.0
      ]
    ],
    "dcmmeta_reorient_transform": [
      [
        0.0,
        -1.0,
        0.0,
        67.0
      ],
      [
        1.0,
        0.0,
        0.0,
        0.0
      ],
      [
        0.0,
        0.0,
        1.0,
        0.0
      ],
      [
        0.0,
        0.0,
        0.0,
        1.0
      ]
    ],
    "dcmmeta_shape": [
      68,
      68,
      36,
      240
    ],
    "dcmmeta_slice_dim": 2,
    "dcmmeta_version": 0.6,
    "global": {
      "const": {
        "AcquisitionMatrix": [
          68,
          0,
          0,
          68
        ],
        "AngioFlag": "N",
        "BitsAllocated": 16,
        "BitsStored": 12,
        "Columns": 408,
        "EchoNumbers": 1,
        "EchoTime": 23.0,
        "EchoTrainLength": 1,
        "FlipAngle": 76.0,
        "HighBit": 11,
        "ImageOrientationPatient": [
          0.9998766325819,
          0.003023974402,
          0.01541347447836,
          2.8562889e-08,
          0.98129266351939,
          -0.1925219689361
        ],
        "ImagePositionPatient": [
          -611.7778485888,
          -615.89776934637,
          77.217873202227
        ],
        "ImageType": [
          "ORIGINAL",
          "PRIMARY",
          "M",
          "ND",
          "MOSAIC"
        ],
        "ImagedNucleus": "1H",
        "ImagingFrequency": 123.218425,
        "InPlanePhaseEncodingDirection": "COL",
        "MRAcquisitionType": "2D",
        "MagneticFieldStrength": 3.0,
        "Manufacturer": "SIEMENS",
        "ManufacturerModelName": "TrioTim",
        "Modality": "MR",
        "NumberOfAverages": 1.0,
        "NumberOfPhaseEncodingSteps": 68,
        "PercentPhaseFieldOfView": 100.0,
        "PercentSampling": 100.0,
        "PerformedProcedureStepStartTime": "152613.890000",
        "PhotometricInterpretation": "MONOCHROME2",
        "PixelBandwidth": 2451.0,
        "PixelRepresentation": 0,
        "PixelSpacing": [
          3.0,
          3.0
        ],
        "ProtocolName": "ep2d_bold_RestEPI_1",
        "RepetitionTime": 2000.0,
        "Rows": 408,
        "SAR": 0.17072721037996,
        "SamplesPerPixel": 1,
        "ScanOptions": "FS",
        "ScanningSequence": "EP",
        "SequenceName": "*epfid2d1_68",
        "SequenceVariant": "SK",
        "SeriesDescription": "ep2d_bold_RestEPI_1",
        "SeriesNumber": 6,
        "SeriesTime": "155925.671000",
        "SliceLocation": -33.185853951915,
        "SliceThickness": 2.5,
        "SmallestImagePixelValue": 0,
        "SoftwareVersions": "syngo MR B19",
        "SpacingBetweenSlices": 3.0000000377512,
        "SpecificCharacterSet": "ISO_IR 100",
        "StudyID": "1",
        "StudyTime": "152613.859000",
        "TransmitCoilName": "Body",
        "VariableFlipAngleFlag": "N",
        "WindowCenterWidthExplanation": "Algo1",
        "dBdt": 0.0
      },
      "slices": {}
    },
    "modality": "bold",
    "run_id": 1,
    "subject_id": "233",
    "task_id": "rest",
    "time": {
      "samples": {
        "AcquisitionNumber": [
          1,
          2,
          3,
          4,
          5,
          6,
          7,
          8,
          9,
          10,
          11,
          12,
          13,
          14,
          15,
          16,
          17,
          18,
          19,
          20,
          21,
          22,
          23,
          24,
          25,
          26,
          27,
          28,
          29,
          30,
          31,
          32,
          33,
          34,
          35,
          36,
          37,
          38,
          39,
          40,
          41,
          42,
          43,
          44,
          45,
          46,
          47,
          48,
          49,
          50,
          51,
          52,
          53,
          54,
          55,
          56,
          57,
          58,
          59,
          60,
          61,
          62,
          63,
          64,
          65,
          66,
          67,
          68,
          69,
          70,
          71,
          72,
          73,
          74,
          75,
          76,
          77,
          78,
          79,
          80,
          81,
          82,
          83,
          84,
          85,
          86,
          87,
          88,
          89,
          90,
          91,
          92,
          93,
          94,
          95,
          96,
          97,
          98,
          99,
          100,
          101,
          102,
          103,
          104,
          105,
          106,
          107,
          108,
          109,
          110,
          111,
          112,
          113,
          114,
          115,
          116,
          117,
          118,
          119,
          120,
          121,
          122,
          123,
          124,
          125,
          126,
          127,
          128,
          129,
          130,
          131,
          132,
          133,
          134,
          135,
          136,
          137,
          138,
          139,
          140,
          141,
          142,
          143,
          144,
          145,
          146,
          147,
          148,
          149,
          150,
          151,
          152,
          153,
          154,
          155,
          156,
          157,
          158,
          159,
          160,
          161,
          162,
          163,
          164,
          165,
          166,
          167,
          168,
          169,
          170,
          171,
          172,
          173,
          174,
          175,
          176,
          177,
          178,
          179,
          180,
          181,
          182,
          183,
          184,
          185,
          186,
          187,
          188,
          189,
          190,
          191,
          192,
          193,
          194,
          195,
          196,
          197,
          198,
          199,
          200,
          201,
          202,
          203,
          204,
          205,
          206,
          207,
          208,
          209,
          210,
          211,
          212,
          213,
          214,
          215,
          216,
          217,
          218,
          219,
          220,
          221,
          222,
          223,
          224,
          225,
          226,
          227,
          228,
          229,
          230,
          231,
          232,
          233,
          234,
          235,
          236,
          237,
          238,
          239,
          240
        ],
        "AcquisitionTime": [
          "155831.725000",
          "155833.732500",
          "155835.740000",
          "155837.747500",
          "155839.757500",
          "155841.765000",
          "155843.772500",
          "155845.780000",
          "155847.790000",
          "155849.797500",
          "155851.805000",
          "155853.812500",
          "155855.820000",
          "155857.830000",
          "155859.837500",
          "155901.845000",
          "155903.852500",
          "155905.860000",
          "155907.870000",
          "155909.877500",
          "155911.885000",
          "155913.892500",
          "155915.902500",
          "155917.910000",
          "155919.917500",
          "155921.925000",
          "155923.932500",
          "155925.942500",
          "155927.950000",
          "155929.957500",
          "155931.965000",
          "155933.972500",
          "155935.982500",
          "155937.990000",
          "155939.997500",
          "155942.005000",
          "155944.015000",
          "155946.022500",
          "155948.030000",
          "155950.037500",
          "155952.045000",
          "155954.055000",
          "155956.062500",
          "155958.070000",
          "160000.077500",
          "160002.085000",
          "160004.095000",
          "160006.102500",
          "160008.110000",
          "160010.117500",
          "160012.125000",
          "160014.135000",
          "160016.142500",
          "160018.150000",
          "160020.157500",
          "160022.167500",
          "160024.175000",
          "160026.182500",
          "160028.190000",
          "160030.197500",
          "160032.207500",
          "160034.215000",
          "160036.222500",
          "160038.230000",
          "160040.237500",
          "160042.247500",
          "160044.255000",
          "160046.262500",
          "160048.270000",
          "160050.280000",
          "160052.287500",
          "160054.295000",
          "160056.302500",
          "160058.310000",
          "160100.320000",
          "160102.327500",
          "160104.335000",
          "160106.342500",
          "160108.350000",
          "160110.360000",
          "160112.367500",
          "160114.375000",
          "160116.382500",
          "160118.392500",
          "160120.400000",
          "160122.407500",
          "160124.415000",
          "160126.422500",
          "160128.432500",
          "160130.440000",
          "160132.447500",
          "160134.455000",
          "160136.462500",
          "160138.472500",
          "160140.480000",
          "160142.487500",
          "160144.495000",
          "160146.502500",
          "160148.512500",
          "160150.520000",
          "160152.527500",
          "160154.535000",
          "160156.545000",
          "160158.552500",
          "160200.560000",
          "160202.567500",
          "160204.575000",
          "160206.585000",
          "160208.592500",
          "160210.600000",
          "160212.607500",
          "160214.615000",
          "160216.625000",
          "160218.632500",
          "160220.640000",
          "160222.647500",
          "160224.657500",
          "160226.665000",
          "160228.672500",
          "160230.680000",
          "160232.687500",
          "160234.697500",
          "160236.705000",
          "160238.712500",
          "160240.720000",
          "160242.727500",
          "160244.737500",
          "160246.745000",
          "160248.752500",
          "160250.760000",
          "160252.770000",
          "160254.777500",
          "160256.785000",
          "160258.792500",
          "160300.800000",
          "160302.810000",
          "160304.817500",
          "160306.825000",
          "160308.832500",
          "160310.840000",
          "160312.850000",
          "160314.857500",
          "160316.865000",
          "160318.872500",
          "160320.882500",
          "160322.890000",
          "160324.897500",
          "160326.905000",
          "160328.912500",
          "160330.922500",
          "160332.930000",
          "160334.937500",
          "160336.945000",
          "160338.952500",
          "160340.962500",
          "160342.970000",
          "160344.977500",
          "160346.985000",
          "160348.992500",
          "160351.002500",
          "160353.010000",
          "160355.017500",
          "160357.025000",
          "160359.035000",
          "160401.042500",
          "160403.050000",
          "160405.057500",
          "160407.065000",
          "160409.075000",
          "160411.082500",
          "160413.090000",
          "160415.097500",
          "160417.105000",
          "160419.115000",
          "160421.122500",
          "160423.130000",
          "160425.137500",
          "160427.147500",
          "160429.155000",
          "160431.162500",
          "160433.170000",
          "160435.177500",
          "160437.187500",
          "160439.195000",
          "160441.202500",
          "160443.210000",
          "160445.217500",
          "160447.227500",
          "160449.235000",
          "160451.242500",
          "160453.250000",
          "160455.260000",
          "160457.267500",
          "160459.275000",
          "160501.282500",
          "160503.290000",
          "160505.300000",
          "160507.307500",
          "160509.315000",
          "160511.322500",
          "160513.330000",
          "160515.340000",
          "160517.347500",
          "160519.355000",
          "160521.362500",
          "160523.370000",
          "160525.380000",
          "160527.387500",
          "160529.395000",
          "160531.402500",
          "160533.412500",
          "160535.420000",
          "160537.427500",
          "160539.435000",
          "160541.442500",
          "160543.452500",
          "160545.460000",
          "160547.467500",
          "160549.475000",
          "160551.482500",
          "160553.492500",
          "160555.500000",
          "160557.507500",
          "160559.515000",
          "160601.525000",
          "160603.532500",
          "160605.540000",
          "160607.547500",
          "160609.555000",
          "160611.565000",
          "160613.572500",
          "160615.580000",
          "160617.587500",
          "160619.595000",
          "160621.605000",
          "160623.612500",
          "160625.620000",
          "160627.627500",
          "160629.637500",
          "160631.645000"
        ],
        "ContentTime": [
          "155925.671000",
          "155925.671000",
          "155925.671000",
          "155925.671000",
          "155925.687000",
          "155925.687000",
          "155925.687000",
          "155925.687000",
          "155925.687000",
          "155925.687000",
          "155925.687000",
          "155925.703000",
          "155925.703000",
          "155925.703000",
          "155925.703000",
          "155925.703000",
          "155925.703000",
          "155925.703000",
          "155925.703000",
          "155925.718000",
          "155925.718000",
          "155925.718000",
          "155925.718000",
          "155925.718000",
          "155925.718000",
          "155925.734000",
          "155925.734000",
          "160005.671000",
          "160005.671000",
          "160005.671000",
          "160005.671000",
          "160005.671000",
          "160005.671000",
          "160005.687000",
          "160005.687000",
          "160005.687000",
          "160005.687000",
          "160005.687000",
          "160005.687000",
          "160005.687000",
          "160005.703000",
          "160005.703000",
          "160005.703000",
          "160005.703000",
          "160005.718000",
          "160005.718000",
          "160005.718000",
          "160045.671000",
          "160045.671000",
          "160045.671000",
          "160045.671000",
          "160045.671000",
          "160045.671000",
          "160045.687000",
          "160045.687000",
          "160045.687000",
          "160045.687000",
          "160045.687000",
          "160045.687000",
          "160045.687000",
          "160045.703000",
          "160045.703000",
          "160045.703000",
          "160045.703000",
          "160045.703000",
          "160045.703000",
          "160045.703000",
          "160125.671000",
          "160125.671000",
          "160125.671000",
          "160125.671000",
          "160125.671000",
          "160125.671000",
          "160125.687000",
          "160125.687000",
          "160125.687000",
          "160125.687000",
          "160125.687000",
          "160125.687000",
          "160125.687000",
          "160125.703000",
          "160125.703000",
          "160125.703000",
          "160125.703000",
          "160125.703000",
          "160125.703000",
          "160125.703000",
          "160205.671000",
          "160205.671000",
          "160205.671000",
          "160205.671000",
          "160205.671000",
          "160205.671000",
          "160205.687000",
          "160205.687000",
          "160205.687000",
          "160205.687000",
          "160205.687000",
          "160205.687000",
          "160205.687000",
          "160205.703000",
          "160205.703000",
          "160205.703000",
          "160205.703000",
          "160205.703000",
          "160205.703000",
          "160205.703000",
          "160245.671000",
          "160245.671000",
          "160245.671000",
          "160245.671000",
          "160245.671000",
          "160245.671000",
          "160245.687000",
          "160245.687000",
          "160245.687000",
          "160245.687000",
          "160245.687000",
          "160245.687000",
          "160245.687000",
          "160245.703000",
          "160245.703000",
          "160245.703000",
          "160245.703000",
          "160245.703000",
          "160245.703000",
          "160245.703000",
          "160325.671000",
          "160325.671000",
          "160325.671000",
          "160325.671000",
          "160325.671000",
          "160325.671000",
          "160325.687000",
          "160325.687000",
          "160325.687000",
          "160325.687000",
          "160325.687000",
          "160325.687000",
          "160325.687000",
          "160325.687000",
          "160325.703000",
          "160325.703000",
          "160325.703000",
          "160325.703000",
          "160325.703000",
          "160325.703000",
          "160405.671000",
          "160405.671000",
          "160405.671000",
          "160405.671000",
          "160405.671000",
          "160405.671000",
          "160405.687000",
          "160405.687000",
          "160405.687000",
          "160405.687000",
          "160405.687000",
          "160405.703000",
          "160405.703000",
          "160405.703000",
          "160405.703000",
          "160405.703000",
          "160405.703000",
          "160405.703000",
          "160405.718000",
          "160405.718000",
          "160445.671000",
          "160445.671000",
          "160445.671000",
          "160445.671000",
          "160445.671000",
          "160445.671000",
          "160445.687000",
          "160445.687000",
          "160445.687000",
          "160445.687000",
          "160445.687000",
          "160445.687000",
          "160445.687000",
          "160445.703000",
          "160445.703000",
          "160445.703000",
          "160445.703000",
          "160445.703000",
          "160445.703000",
          "160445.703000",
          "160525.671000",
          "160525.671000",
          "160525.671000",
          "160525.671000",
          "160525.671000",
          "160525.671000",
          "160525.687000",
          "160525.687000",
          "160525.687000",
          "160525.687000",
          "160525.687000",
          "160525.687000",
          "160525.687000",
          "160525.703000",
          "160525.703000",
          "160525.703000",
          "160525.703000",
          "160525.703000",
          "160525.703000",
          "160525.718000",
          "160605.671000",
          "160605.671000",
          "160605.671000",
          "160605.671000",
          "160605.671000",
          "160605.687000",
          "160605.687000",
          "160605.687000",
          "160605.687000",
          "160605.687000",
          "160605.687000",
          "160605.687000",
          "160605.703000",
          "160605.703000",
          "160605.703000",
          "160605.703000",
          "160605.703000",
          "160605.703000",
          "160605.703000",
          "160605.718000",
          "160631.593000",
          "160631.609000",
          "160631.609000",
          "160631.609000",
          "160631.609000",
          "160631.609000",
          "160631.609000",
          "160631.625000",
          "160631.625000",
          "160631.625000",
          "160631.625000",
          "160631.625000",
          "160631.625000"
        ],
        "InstanceCreationTime": [
          "155925.671000",
          "155925.671000",
          "155925.671000",
          "155925.671000",
          "155925.687000",
          "155925.687000",
          "155925.687000",
          "155925.687000",
          "155925.687000",
          "155925.687000",
          "155925.687000",
          "155925.703000",
          "155925.703000",
          "155925.703000",
          "155925.703000",
          "155925.703000",
          "155925.703000",
          "155925.703000",
          "155925.703000",
          "155925.718000",
          "155925.718000",
          "155925.718000",
          "155925.718000",
          "155925.718000",
          "155925.718000",
          "155925.734000",
          "155925.734000",
          "160005.671000",
          "160005.671000",
          "160005.671000",
          "160005.671000",
          "160005.671000",
          "160005.671000",
          "160005.687000",
          "160005.687000",
          "160005.687000",
          "160005.687000",
          "160005.687000",
          "160005.687000",
          "160005.687000",
          "160005.703000",
          "160005.703000",
          "160005.703000",
          "160005.703000",
          "160005.718000",
          "160005.718000",
          "160005.718000",
          "160045.671000",
          "160045.671000",
          "160045.671000",
          "160045.671000",
          "160045.671000",
          "160045.671000",
          "160045.687000",
          "160045.687000",
          "160045.687000",
          "160045.687000",
          "160045.687000",
          "160045.687000",
          "160045.687000",
          "160045.703000",
          "160045.703000",
          "160045.703000",
          "160045.703000",
          "160045.703000",
          "160045.703000",
          "160045.703000",
          "160125.671000",
          "160125.671000",
          "160125.671000",
          "160125.671000",
          "160125.671000",
          "160125.671000",
          "160125.687000",
          "160125.687000",
          "160125.687000",
          "160125.687000",
          "160125.687000",
          "160125.687000",
          "160125.687000",
          "160125.703000",
          "160125.703000",
          "160125.703000",
          "160125.703000",
          "160125.703000",
          "160125.703000",
          "160125.703000",
          "160205.671000",
          "160205.671000",
          "160205.671000",
          "160205.671000",
          "160205.671000",
          "160205.671000",
          "160205.687000",
          "160205.687000",
          "160205.687000",
          "160205.687000",
          "160205.687000",
          "160205.687000",
          "160205.687000",
          "160205.703000",
          "160205.703000",
          "160205.703000",
          "160205.703000",
          "160205.703000",
          "160205.703000",
          "160205.703000",
          "160245.671000",
          "160245.671000",
          "160245.671000",
          "160245.671000",
          "160245.671000",
          "160245.671000",
          "160245.687000",
          "160245.687000",
          "160245.687000",
          "160245.687000",
          "160245.687000",
          "160245.687000",
          "160245.687000",
          "160245.703000",
          "160245.703000",
          "160245.703000",
          "160245.703000",
          "160245.703000",
          "160245.703000",
          "160245.703000",
          "160325.671000",
          "160325.671000",
          "160325.671000",
          "160325.671000",
          "160325.671000",
          "160325.671000",
          "160325.687000",
          "160325.687000",
          "160325.687000",
          "160325.687000",
          "160325.687000",
          "160325.687000",
          "160325.687000",
          "160325.687000",
          "160325.703000",
          "160325.703000",
          "160325.703000",
          "160325.703000",
          "160325.703000",
          "160325.703000",
          "160405.671000",
          "160405.671000",
          "160405.671000",
          "160405.671000",
          "160405.671000",
          "160405.671000",
          "160405.687000",
          "160405.687000",
          "160405.687000",
          "160405.687000",
          "160405.687000",
          "160405.703000",
          "160405.703000",
          "160405.703000",
          "160405.703000",
          "160405.703000",
          "160405.703000",
          "160405.703000",
          "160405.718000",
          "160405.718000",
          "160445.671000",
          "160445.671000",
          "160445.671000",
          "160445.671000",
          "160445.671000",
          "160445.671000",
          "160445.687000",
          "160445.687000",
          "160445.687000",
          "160445.687000",
          "160445.687000",
          "160445.687000",
          "160445.687000",
          "160445.703000",
          "160445.703000",
          "160445.703000",
          "160445.703000",
          "160445.703000",
          "160445.703000",
          "160445.703000",
          "160525.671000",
          "160525.671000",
          "160525.671000",
          "160525.671000",
          "160525.671000",
          "160525.671000",
          "160525.687000",
          "160525.687000",
          "160525.687000",
          "160525.687000",
          "160525.687000",
          "160525.687000",
          "160525.687000",
          "160525.703000",
          "160525.703000",
          "160525.703000",
          "160525.703000",
          "160525.703000",
          "160525.703000",
          "160525.718000",
          "160605.671000",
          "160605.671000",
          "160605.671000",
          "160605.671000",
          "160605.671000",
          "160605.687000",
          "160605.687000",
          "160605.687000",
          "160605.687000",
          "160605.687000",
          "160605.687000",
          "160605.687000",
          "160605.703000",
          "160605.703000",
          "160605.703000",
          "160605.703000",
          "160605.703000",
          "160605.703000",
          "160605.703000",
          "160605.718000",
          "160631.593000",
          "160631.609000",
          "160631.609000",
          "160631.609000",
          "160631.609000",
          "160631.609000",
          "160631.609000",
          "160631.625000",
          "160631.625000",
          "160631.625000",
          "160631.625000",
          "160631.625000",
          "160631.625000"
        ],
        "InstanceNumber": [
          1,
          2,
          3,
          4,
          5,
          6,
          7,
          8,
          9,
          10,
          11,
          12,
          13,
          14,
          15,
          16,
          17,
          18,
          19,
          20,
          21,
          22,
          23,
          24,
          25,
          26,
          27,
          28,
          29,
          30,
          31,
          32,
          33,
          34,
          35,
          36,
          37,
          38,
          39,
          40,
          41,
          42,
          43,
          44,
          45,
          46,
          47,
