{
  "aor": 0.005737489539748954,
  "aqi": 0.01817757092050209,
  "bids_meta": {
    "AcquisitionMatrixPE": 68,
    "AcquisitionNumber": 1,
    "AcquisitionTime": "16:32:13.310000",
    "BandwidthPerPixelPhaseEncode": 31.289,
    "BaseResolution": 68,
    "CogAtlasID": "TODO",
    "CoilString": "C:HEA;HEP",
    "ConversionSoftware": "dcm2niix",
    "ConversionSoftwareVersion": "v1.0.20190902",
    "DerivedVendorReportedEchoSpacing": 0.000470002,
    "DeviceSerialNumber": "35450",
    "DwellTime": 3e-06,
    "EchoTime": 0.023,
    "EffectiveEchoSpacing": 0.000470002,
    "FlipAngle": 76,
    "ImageOrientationPatientDICOM": [
      0.999877,
      0.00302397,
      0.0154135,
      2.85629e-08,
      0.981293,
      -0.192522
    ],
    "ImageType": [
      "ORIGINAL",
      "PRIMARY",
      "M",
      "ND",
      "MOSAIC"
    ],
    "ImagingFrequency": 123.218,
    "InPlanePhaseEncodingDirectionDICOM": "COL",
    "InstitutionAddress": "Univeristy_Ave._197_Newark_North_East_US_07102-1814",
    "InstitutionName": "RUBIC",
    "InstitutionalDepartmentName": "Department",
    "MRAcquisitionType": "2D",
    "MagneticFieldStrength": 3,
    "Manufacturer": "Siemens",
    "ManufacturersModelName": "TrioTim",
    "Modality": "MR",
    "PartialFourier": 1,
    "PatientPosition": "HFS",
    "PercentPhaseFOV": 100,
    "PhaseEncodingDirection": "j-",
    "PhaseEncodingSteps": 68,
    "PhaseResolution": 1,
    "PixelBandwidth": 2451,
    "ProcedureStepDescription": "Krekelberg_David",
    "ProtocolName": "ep2d_bold_RestEPI_3",
    "PulseSequenceDetails": "%SiemensSeq%_ep2d_bold",
    "ReceiveCoilName": "HeadMatrix",
    "ReconMatrixPE": 68,
    "RepetitionTime": 2,
    "SAR": 0.170727,
    "ScanOptions": "FS",
    "ScanningSequence": "EP",
    "SequenceName": "_epfid2d1_68",
    "SequenceVariant": "SK",
    "SeriesDescription": "ep2d_bold_RestEPI_3",
    "SeriesNumber": 9,
    "ShimSetting": [
      1952,
      -575,
      -7515,
      585,
      232,
      222,
      -211,
      -35
    ],
    "SliceThickness": 2.5,
    "SliceTiming": [
      1.9525,
      1.895,
      1.84,
      1.785,
      1.7275,
      1.6725,
      1.6175,
      1.56,
      1.505,
      1.45,
      1.395,
      1.3375,
      1.2825,
      1.2275,
      1.17,
      1.115,
      1.06,
      1.0025,
      0.9475,
      0.8925,
      0.835,
      0.78,
      0.725,
      0.67,
      0.6125,
      0.5575,
      0.5025,
      0.445,
      0.39,
      0.335,
      0.2775,
      0.2225,
      0.1675,
      0.11,
      0.055,
      0
    ],
    "SoftwareVersions": "syngo_MR_B19",
    "SpacingBetweenSlices": 3,
    "StationName": "MRC35450",
    "TaskName": "rest",
    "TotalReadoutTime": 0.0314901,
    "TxRefAmp": 458.289,
    "dataset": "<unset>",
    "dcmmeta_affine": [
      [
        -2.9996299743652344,
        8.56886686051439e-08,
        0.047121934592723846,
        101.84074401855469
      ],
      [
        -0.009071922861039639,
        2.943877935409546,
        -0.5774946808815002,
        -83.34354400634766
      ],
      [
        0.0462404228746891,
        0.5775659084320068,
        2.943514823913574,
        -51.80437469482422
      ],
      [
        0.0,
        0.0,
        0.0,
        1.0
      ]
    ],
    "dcmmeta_reorient_transform": [
      [
        0.0,
        -1.0,
        0.0,
        67.0
      ],
      [
        1.0,
        0.0,
        0.0,
        0.0
      ],
      [
        0.0,
        0.0,
        1.0,
        0.0
      ],
      [
        0.0,
        0.0,
        0.0,
        1.0
      ]
    ],
    "dcmmeta_shape": [
      68,
      68,
      36,
      240
    ],
    "dcmmeta_slice_dim": 2,
    "dcmmeta_version": 0.6,
    "global": {
      "const": {
        "AcquisitionMatrix": [
          68,
          0,
          0,
          68
        ],
        "AngioFlag": "N",
        "BitsAllocated": 16,
        "BitsStored": 12,
        "Columns": 408,
        "EchoNumbers": 1,
        "EchoTime": 23.0,
        "EchoTrainLength": 1,
        "FlipAngle": 76.0,
        "HighBit": 11,
        "ImageOrientationPatient": [
          0.9998766325819,
          0.003023974402,
          0.01541347447836,
          2.8562889e-08,
          0.98129266351939,
          -0.1925219689361
        ],
        "ImagePositionPatient": [
          -611.7778485888,
          -615.89776934637,
          77.217873202227
        ],
        "ImageType": [
          "ORIGINAL",
          "PRIMARY",
          "M",
          "ND",
          "MOSAIC"
        ],
        "ImagedNucleus": "1H",
        "ImagingFrequency": 123.218469,
        "InPlanePhaseEncodingDirection": "COL",
        "MRAcquisitionType": "2D",
        "MagneticFieldStrength": 3.0,
        "Manufacturer": "SIEMENS",
        "ManufacturerModelName": "TrioTim",
        "Modality": "MR",
        "NumberOfAverages": 1.0,
        "NumberOfPhaseEncodingSteps": 68,
        "PercentPhaseFieldOfView": 100.0,
        "PercentSampling": 100.0,
        "PerformedProcedureStepStartTime": "152613.890000",
        "PhotometricInterpretation": "MONOCHROME2",
        "PixelBandwidth": 2451.0,
        "PixelRepresentation": 0,
        "PixelSpacing": [
          3.0,
          3.0
        ],
        "ProtocolName": "ep2d_bold_RestEPI_3",
        "RepetitionTime": 2000.0,
        "Rows": 408,
        "SAR": 0.17072721037996,
        "SamplesPerPixel": 1,
        "ScanOptions": "FS",
        "ScanningSequence": "EP",
        "SequenceName": "*epfid2d1_68",
        "SequenceVariant": "SK",
        "SeriesDescription": "ep2d_bold_RestEPI_3",
        "SeriesNumber": 9,
        "SeriesTime": "163305.671000",
        "SliceLocation": -33.185853951915,
        "SliceThickness": 2.5,
        "SmallestImagePixelValue": 0,
        "SoftwareVersions": "syngo MR B19",
        "SpacingBetweenSlices": 3.0000000377512,
        "SpecificCharacterSet": "ISO_IR 100",
        "StudyID": "1",
        "StudyTime": "152613.859000",
        "TransmitCoilName": "Body",
        "VariableFlipAngleFlag": "N",
        "WindowCenterWidthExplanation": "Algo1",
        "dBdt": 0.0
      },
      "slices": {}
    },
    "modality": "bold",
    "run_id": 3,
    "subject_id": "233",
    "task_id": "rest",
    "time": {
      "samples": {
        "AcquisitionNumber": [
          1,
          2,
          3,
          4,
          5,
          6,
          7,
          8,
          9,
          10,
          11,
          12,
          13,
          14,
          15,
          16,
          17,
          18,
          19,
          20,
          21,
          22,
          23,
          24,
          25,
          26,
          27,
          28,
          29,
          30,
          31,
          32,
          33,
          34,
          35,
          36,
          37,
          38,
          39,
          40,
          41,
          42,
          43,
          44,
          45,
          46,
          47,
          48,
          49,
          50,
          51,
          52,
          53,
          54,
          55,
          56,
          57,
          58,
          59,
          60,
          61,
          62,
          63,
          64,
          65,
          66,
          67,
          68,
          69,
          70,
          71,
          72,
          73,
          74,
          75,
          76,
          77,
          78,
          79,
          80,
          81,
          82,
          83,
          84,
          85,
          86,
          87,
          88,
          89,
          90,
          91,
          92,
          93,
          94,
          95,
          96,
          97,
          98,
          99,
          100,
          101,
          102,
          103,
          104,
          105,
          106,
          107,
          108,
          109,
          110,
          111,
          112,
          113,
          114,
          115,
          116,
          117,
          118,
          119,
          120,
          121,
          122,
          123,
          124,
          125,
          126,
          127,
          128,
          129,
          130,
          131,
          132,
          133,
          134,
          135,
          136,
          137,
          138,
          139,
          140,
          141,
          142,
          143,
          144,
          145,
          146,
          147,
          148,
          149,
          150,
          151,
          152,
          153,
          154,
          155,
          156,
          157,
          158,
          159,
          160,
          161,
          162,
          163,
          164,
          165,
          166,
          167,
          168,
          169,
          170,
          171,
          172,
          173,
          174,
          175,
          176,
          177,
          178,
          179,
          180,
          181,
          182,
          183,
          184,
          185,
          186,
          187,
          188,
          189,
          190,
          191,
          192,
          193,
          194,
          195,
          196,
          197,
          198,
          199,
          200,
          201,
          202,
          203,
          204,
          205,
          206,
          207,
          208,
          209,
          210,
          211,
          212,
          213,
          214,
          215,
          216,
          217,
          218,
          219,
          220,
          221,
          222,
          223,
          224,
          225,
          226,
          227,
          228,
          229,
          230,
          231,
          232,
          233,
          234,
          235,
          236,
          237,
          238,
          239,
          240
        ],
        "AcquisitionTime": [
          "163213.310000",
          "163215.317500",
          "163217.325000",
          "163219.332500",
          "163221.340000",
          "163223.350000",
          "163225.357500",
          "163227.365000",
          "163229.372500",
          "163231.380000",
          "163233.390000",
          "163235.397500",
          "163237.405000",
          "163239.412500",
          "163241.422500",
          "163243.430000",
          "163245.437500",
          "163247.445000",
          "163249.452500",
          "163251.462500",
          "163253.470000",
          "163255.477500",
          "163257.485000",
          "163259.492500",
          "163301.502500",
          "163303.510000",
          "163305.517500",
          "163307.525000",
          "163309.535000",
          "163311.542500",
          "163313.550000",
          "163315.557500",
          "163317.565000",
          "163319.575000",
          "163321.582500",
          "163323.590000",
          "163325.597500",
          "163327.605000",
          "163329.615000",
          "163331.622500",
          "163333.630000",
          "163335.637500",
          "163337.645000",
          "163339.655000",
          "163341.662500",
          "163343.670000",
          "163345.677500",
          "163347.687500",
          "163349.695000",
          "163351.702500",
          "163353.710000",
          "163355.717500",
          "163357.727500",
          "163359.735000",
          "163401.742500",
          "163403.750000",
          "163405.757500",
          "163407.767500",
          "163409.775000",
          "163411.782500",
          "163413.790000",
          "163415.800000",
          "163417.807500",
          "163419.815000",
          "163421.822500",
          "163423.830000",
          "163425.840000",
          "163427.847500",
          "163429.855000",
          "163431.862500",
          "163433.870000",
          "163435.880000",
          "163437.887500",
          "163439.895000",
          "163441.902500",
          "163443.912500",
          "163445.920000",
          "163447.927500",
          "163449.935000",
          "163451.942500",
          "163453.952500",
          "163455.960000",
          "163457.967500",
          "163459.975000",
          "163501.982500",
          "163503.992500",
          "163506.000000",
          "163508.007500",
          "163510.015000",
          "163512.022500",
          "163514.032500",
          "163516.040000",
          "163518.047500",
          "163520.055000",
          "163522.065000",
          "163524.072500",
          "163526.080000",
          "163528.087500",
          "163530.095000",
          "163532.105000",
          "163534.112500",
          "163536.120000",
          "163538.127500",
          "163540.135000",
          "163542.145000",
          "163544.152500",
          "163546.160000",
          "163548.167500",
          "163550.177500",
          "163552.185000",
          "163554.192500",
          "163556.200000",
          "163558.207500",
          "163600.217500",
          "163602.225000",
          "163604.232500",
          "163606.240000",
          "163608.247500",
          "163610.257500",
          "163612.265000",
          "163614.272500",
          "163616.280000",
          "163618.290000",
          "163620.297500",
          "163622.305000",
          "163624.312500",
          "163626.320000",
          "163628.330000",
          "163630.337500",
          "163632.345000",
          "163634.352500",
          "163636.360000",
          "163638.370000",
          "163640.377500",
          "163642.385000",
          "163644.392500",
          "163646.402500",
          "163648.410000",
          "163650.417500",
          "163652.425000",
          "163654.432500",
          "163656.442500",
          "163658.450000",
          "163700.457500",
          "163702.465000",
          "163704.472500",
          "163706.482500",
          "163708.490000",
          "163710.497500",
          "163712.505000",
          "163714.512500",
          "163716.522500",
          "163718.530000",
          "163720.537500",
          "163722.545000",
          "163724.555000",
          "163726.562500",
          "163728.570000",
          "163730.577500",
          "163732.585000",
          "163734.595000",
          "163736.602500",
          "163738.610000",
          "163740.617500",
          "163742.625000",
          "163744.635000",
          "163746.642500",
          "163748.650000",
          "163750.657500",
          "163752.667500",
          "163754.675000",
          "163756.682500",
          "163758.690000",
          "163800.697500",
          "163802.707500",
          "163804.715000",
          "163806.722500",
          "163808.730000",
          "163810.737500",
          "163812.747500",
          "163814.755000",
          "163816.762500",
          "163818.770000",
          "163820.780000",
          "163822.787500",
          "163824.795000",
          "163826.802500",
          "163828.810000",
          "163830.820000",
          "163832.827500",
          "163834.835000",
          "163836.842500",
          "163838.850000",
          "163840.860000",
          "163842.867500",
          "163844.875000",
          "163846.882500",
          "163848.890000",
          "163850.900000",
          "163852.907500",
          "163854.915000",
          "163856.922500",
          "163858.932500",
          "163900.940000",
          "163902.947500",
          "163904.955000",
          "163906.962500",
          "163908.972500",
          "163910.980000",
          "163912.987500",
          "163914.995000",
          "163917.002500",
          "163919.012500",
          "163921.020000",
          "163923.027500",
          "163925.035000",
          "163927.045000",
          "163929.052500",
          "163931.060000",
          "163933.067500",
          "163935.075000",
          "163937.085000",
          "163939.092500",
          "163941.100000",
          "163943.107500",
          "163945.115000",
          "163947.125000",
          "163949.132500",
          "163951.140000",
          "163953.147500",
          "163955.157500",
          "163957.165000",
          "163959.172500",
          "164001.180000",
          "164003.187500",
          "164005.197500",
          "164007.205000",
          "164009.212500",
          "164011.220000",
          "164013.227500"
        ],
        "ContentTime": [
          "163305.671000",
          "163305.671000",
          "163305.671000",
          "163305.687000",
          "163305.687000",
          "163305.687000",
          "163305.687000",
          "163305.687000",
          "163305.687000",
          "163305.687000",
          "163305.703000",
          "163305.703000",
          "163305.703000",
          "163305.703000",
          "163305.703000",
          "163305.703000",
          "163305.703000",
          "163305.703000",
          "163305.718000",
          "163305.718000",
          "163305.718000",
          "163305.718000",
          "163305.718000",
          "163305.718000",
          "163305.718000",
          "163305.734000",
          "163345.671000",
          "163345.671000",
          "163345.671000",
          "163345.671000",
          "163345.671000",
          "163345.671000",
          "163345.687000",
          "163345.687000",
          "163345.687000",
          "163345.687000",
          "163345.687000",
          "163345.687000",
          "163345.687000",
          "163345.703000",
          "163345.703000",
          "163345.703000",
          "163345.703000",
          "163345.703000",
          "163345.703000",
          "163345.703000",
          "163425.671000",
          "163425.671000",
          "163425.671000",
          "163425.671000",
          "163425.671000",
          "163425.687000",
          "163425.687000",
          "163425.687000",
          "163425.687000",
          "163425.687000",
          "163425.703000",
          "163425.703000",
          "163425.703000",
          "163425.703000",
          "163425.703000",
          "163425.703000",
          "163425.718000",
          "163425.718000",
          "163425.718000",
          "163425.718000",
          "163505.671000",
          "163505.671000",
          "163505.671000",
          "163505.671000",
          "163505.671000",
          "163505.687000",
          "163505.687000",
          "163505.687000",
          "163505.687000",
          "163505.687000",
          "163505.687000",
          "163505.687000",
          "163505.687000",
          "163505.703000",
          "163505.703000",
          "163505.703000",
          "163505.703000",
          "163505.703000",
          "163505.703000",
          "163505.703000",
          "163545.671000",
          "163545.671000",
          "163545.671000",
          "163545.671000",
          "163545.671000",
          "163545.687000",
          "163545.687000",
          "163545.687000",
          "163545.687000",
          "163545.687000",
          "163545.687000",
          "163545.687000",
          "163545.687000",
          "163545.703000",
          "163545.703000",
          "163545.703000",
          "163545.703000",
          "163545.703000",
          "163545.703000",
          "163545.703000",
          "163625.671000",
          "163625.671000",
          "163625.671000",
          "163625.671000",
          "163625.671000",
          "163625.687000",
          "163625.687000",
          "163625.687000",
          "163625.687000",
          "163625.687000",
          "163625.687000",
          "163625.687000",
          "163625.687000",
          "163625.703000",
          "163625.703000",
          "163625.703000",
          "163625.703000",
          "163625.703000",
          "163625.703000",
          "163625.703000",
          "163705.671000",
          "163705.671000",
          "163705.671000",
          "163705.671000",
          "163705.671000",
          "163705.687000",
          "163705.687000",
          "163705.687000",
          "163705.687000",
          "163705.687000",
          "163705.703000",
          "163705.703000",
          "163705.703000",
          "163705.703000",
          "163705.703000",
          "163705.703000",
          "163705.703000",
          "163705.703000",
          "163705.718000",
          "163705.718000",
          "163745.671000",
          "163745.671000",
          "163745.671000",
          "163745.671000",
          "163745.671000",
          "163745.687000",
          "163745.687000",
          "163745.687000",
          "163745.687000",
          "163745.687000",
          "163745.687000",
          "163745.687000",
          "163745.687000",
          "163745.703000",
          "163745.703000",
          "163745.703000",
          "163745.703000",
          "163745.703000",
          "163745.703000",
          "163745.703000",
          "163825.671000",
          "163825.671000",
          "163825.671000",
          "163825.671000",
          "163825.671000",
          "163825.687000",
          "163825.687000",
          "163825.687000",
          "163825.687000",
          "163825.703000",
          "163825.703000",
          "163825.703000",
          "163825.703000",
          "163825.703000",
          "163825.703000",
          "163825.703000",
          "163825.718000",
          "163825.718000",
          "163825.718000",
          "163825.718000",
          "163905.671000",
          "163905.671000",
          "163905.671000",
          "163905.671000",
          "163905.671000",
          "163905.687000",
          "163905.687000",
          "163905.687000",
          "163905.687000",
          "163905.687000",
          "163905.687000",
          "163905.687000",
          "163905.687000",
          "163905.703000",
          "163905.703000",
          "163905.703000",
          "163905.703000",
          "163905.703000",
          "163905.703000",
          "163905.703000",
          "163945.671000",
          "163945.671000",
          "163945.671000",
          "163945.671000",
          "163945.671000",
          "163945.687000",
          "163945.687000",
          "163945.687000",
          "163945.687000",
          "163945.687000",
          "163945.687000",
          "163945.687000",
          "163945.687000",
          "163945.703000",
          "163945.703000",
          "163945.703000",
          "163945.703000",
          "163945.703000",
          "163945.703000",
          "163945.703000",
          "164012.796000",
          "164012.796000",
          "164012.812000",
          "164012.812000",
          "164012.812000",
          "164012.812000",
          "164012.812000",
          "164012.812000",
          "164012.812000",
          "164012.828000",
          "164012.828000",
          "164012.828000",
          "164012.828000",
          "164012.828000"
        ],
        "InstanceCreationTime": [
          "163305.671000",
          "163305.671000",
          "163305.671000",
          "163305.687000",
          "163305.687000",
          "163305.687000",
          "163305.687000",
          "163305.687000",
          "163305.687000",
          "163305.687000",
          "163305.703000",
          "163305.703000",
          "163305.703000",
          "163305.703000",
          "163305.703000",
          "163305.703000",
          "163305.703000",
          "163305.703000",
          "163305.718000",
          "163305.718000",
          "163305.718000",
          "163305.718000",
          "163305.718000",
          "163305.718000",
          "163305.718000",
          "163305.734000",
          "163345.671000",
          "163345.671000",
          "163345.671000",
          "163345.671000",
          "163345.671000",
          "163345.671000",
          "163345.687000",
          "163345.687000",
          "163345.687000",
          "163345.687000",
          "163345.687000",
          "163345.687000",
          "163345.687000",
          "163345.703000",
          "163345.703000",
          "163345.703000",
          "163345.703000",
          "163345.703000",
          "163345.703000",
          "163345.703000",
          "163425.671000",
          "163425.671000",
          "163425.671000",
          "163425.671000",
          "163425.671000",
          "163425.687000",
          "163425.687000",
          "163425.687000",
          "163425.687000",
          "163425.687000",
          "163425.703000",
          "163425.703000",
          "163425.703000",
          "163425.703000",
          "163425.703000",
          "163425.703000",
          "163425.718000",
          "163425.718000",
          "163425.718000",
          "163425.718000",
          "163505.671000",
          "163505.671000",
          "163505.671000",
          "163505.671000",
          "163505.671000",
          "163505.687000",
          "163505.687000",
          "163505.687000",
          "163505.687000",
          "163505.687000",
          "163505.687000",
          "163505.687000",
          "163505.687000",
          "163505.703000",
          "163505.703000",
          "163505.703000",
          "163505.703000",
          "163505.703000",
          "163505.703000",
          "163505.703000",
          "163545.671000",
          "163545.671000",
          "163545.671000",
          "163545.671000",
          "163545.671000",
          "163545.687000",
          "163545.687000",
          "163545.687000",
          "163545.687000",
          "163545.687000",
          "163545.687000",
          "163545.687000",
          "163545.687000",
          "163545.703000",
          "163545.703000",
          "163545.703000",
          "163545.703000",
          "163545.703000",
          "163545.703000",
          "163545.703000",
          "163625.671000",
          "163625.671000",
          "163625.671000",
          "163625.671000",
          "163625.671000",
          "163625.687000",
          "163625.687000",
          "163625.687000",
          "163625.687000",
          "163625.687000",
          "163625.687000",
          "163625.687000",
          "163625.687000",
          "163625.703000",
          "163625.703000",
          "163625.703000",
          "163625.703000",
          "163625.703000",
          "163625.703000",
          "163625.703000",
          "163705.671000",
          "163705.671000",
          "163705.671000",
          "163705.671000",
          "163705.671000",
          "163705.687000",
          "163705.687000",
          "163705.687000",
          "163705.687000",
          "163705.687000",
          "163705.703000",
          "163705.703000",
          "163705.703000",
          "163705.703000",
          "163705.703000",
          "163705.703000",
          "163705.703000",
          "163705.703000",
          "163705.718000",
          "163705.718000",
          "163745.671000",
          "163745.671000",
          "163745.671000",
          "163745.671000",
          "163745.671000",
          "163745.687000",
          "163745.687000",
          "163745.687000",
          "163745.687000",
          "163745.687000",
          "163745.687000",
          "163745.687000",
          "163745.687000",
          "163745.703000",
          "163745.703000",
          "163745.703000",
          "163745.703000",
          "163745.703000",
          "163745.703000",
          "163745.703000",
          "163825.671000",
          "163825.671000",
          "163825.671000",
          "163825.671000",
          "163825.671000",
          "163825.687000",
          "163825.687000",
          "163825.687000",
          "163825.687000",
          "163825.703000",
          "163825.703000",
          "163825.703000",
          "163825.703000",
          "163825.703000",
          "163825.703000",
          "163825.703000",
          "163825.718000",
          "163825.718000",
          "163825.718000",
          "163825.718000",
          "163905.671000",
          "163905.671000",
          "163905.671000",
          "163905.671000",
          "163905.671000",
          "163905.687000",
          "163905.687000",
          "163905.687000",
          "163905.687000",
          "163905.687000",
          "163905.687000",
          "163905.687000",
          "163905.687000",
          "163905.703000",
          "163905.703000",
          "163905.703000",
          "163905.703000",
          "163905.703000",
          "163905.703000",
          "163905.703000",
          "163945.671000",
          "163945.671000",
          "163945.671000",
          "163945.671000",
          "163945.671000",
          "163945.687000",
          "163945.687000",
          "163945.687000",
          "163945.687000",
          "163945.687000",
          "163945.687000",
          "163945.687000",
          "163945.687000",
          "163945.703000",
          "163945.703000",
          "163945.703000",
          "163945.703000",
          "163945.703000",
          "163945.703000",
          "163945.703000",
          "164012.796000",
          "164012.796000",
          "164012.812000",
          "164012.812000",
          "164012.812000",
          "164012.812000",
          "164012.812000",
          "164012.812000",
          "164012.812000",
          "164012.828000",
          "164012.828000",
          "164012.828000",
          "164012.828000",
          "164012.828000"
        ],
        "InstanceNumber": [
          1,
          2,
          3,
          4,
          5,
          6,
          7,
          8,
          9,
          10,
          11,
          12,
          13,
          14,
          15,
          16,
          17,
          18,
          19,
          20,
          21,
          22,
          23,
          24,
          25,
          26,
          27,
          28,
          29,
          30,
          31,
          32,
          33,
          34,
          35,
          36,
          37,
          38,
          39,
          40,
          41,
          42,
          43,
          44,
          45,
          46,
          47,
