{
  "aor": 0.005332175732217573,
  "aqi": 0.01093884510460251,
  "bids_meta": {
    "AcquisitionMatrixPE": 68,
    "AcquisitionNumber": 1,
    "AcquisitionTime": "16:41:36.287500",
    "BandwidthPerPixelPhaseEncode": 31.289,
    "BaseResolution": 68,
    "CogAtlasID": "TODO",
    "CoilString": "C:HEA;HEP",
    "ConversionSoftware": "dcm2niix",
    "ConversionSoftwareVersion": "v1.0.20190902",
    "DerivedVendorReportedEchoSpacing": 0.000470002,
    "DeviceSerialNumber": "35450",
    "DwellTime": 3e-06,
    "EchoTime": 0.023,
    "EffectiveEchoSpacing": 0.000470002,
    "FlipAngle": 76,
    "ImageOrientationPatientDICOM": [
      0.999877,
      0.00302397,
      0.0154135,
      2.85629e-08,
      0.981293,
      -0.192522
    ],
    "ImageType": [
      "ORIGINAL",
      "PRIMARY",
      "M",
      "ND",
      "MOSAIC"
    ],
    "ImagingFrequency": 123.218,
    "InPlanePhaseEncodingDirectionDICOM": "COL",
    "InstitutionAddress": "Univeristy_Ave._197_Newark_North_East_US_07102-1814",
    "InstitutionName": "RUBIC",
    "InstitutionalDepartmentName": "Department",
    "MRAcquisitionType": "2D",
    "MagneticFieldStrength": 3,
    "Manufacturer": "Siemens",
    "ManufacturersModelName": "TrioTim",
    "Modality": "MR",
    "PartialFourier": 1,
    "PatientPosition": "HFS",
    "PercentPhaseFOV": 100,
    "PhaseEncodingDirection": "j-",
    "PhaseEncodingSteps": 68,
    "PhaseResolution": 1,
    "PixelBandwidth": 2451,
    "ProcedureStepDescription": "Krekelberg_David",
    "ProtocolName": "ep2d_bold_RestEPI_4",
    "PulseSequenceDetails": "%SiemensSeq%_ep2d_bold",
    "ReceiveCoilName": "HeadMatrix",
    "ReconMatrixPE": 68,
    "RepetitionTime": 2,
    "SAR": 0.170727,
    "ScanOptions": "FS",
    "ScanningSequence": "EP",
    "SequenceName": "_epfid2d1_68",
    "SequenceVariant": "SK",
    "SeriesDescription": "ep2d_bold_RestEPI_4",
    "SeriesNumber": 10,
    "ShimSetting": [
      1952,
      -575,
      -7515,
      585,
      232,
      222,
      -211,
      -35
    ],
    "SliceThickness": 2.5,
    "SliceTiming": [
      1.95,
      1.895,
      1.84,
      1.785,
      1.7275,
      1.6725,
      1.6175,
      1.56,
      1.505,
      1.45,
      1.3925,
      1.3375,
      1.2825,
      1.225,
      1.17,
      1.115,
      1.06,
      1.0025,
      0.9475,
      0.8925,
      0.835,
      0.78,
      0.725,
      0.6675,
      0.6125,
      0.5575,
      0.5025,
      0.445,
      0.39,
      0.335,
      0.2775,
      0.2225,
      0.1675,
      0.11,
      0.055,
      0
    ],
    "SoftwareVersions": "syngo_MR_B19",
    "SpacingBetweenSlices": 3,
    "StationName": "MRC35450",
    "TaskName": "rest",
    "TotalReadoutTime": 0.0314901,
    "TxRefAmp": 458.289,
    "dataset": "<unset>",
    "dcmmeta_affine": [
      [
        -2.9996299743652344,
        8.56886686051439e-08,
        0.047121934592723846,
        101.84074401855469
      ],
      [
        -0.009071922861039639,
        2.943877935409546,
        -0.5774946808815002,
        -83.34354400634766
      ],
      [
        0.0462404228746891,
        0.5775659084320068,
        2.943514823913574,
        -51.80437469482422
      ],
      [
        0.0,
        0.0,
        0.0,
        1.0
      ]
    ],
    "dcmmeta_reorient_transform": [
      [
        0.0,
        -1.0,
        0.0,
        67.0
      ],
      [
        1.0,
        0.0,
        0.0,
        0.0
      ],
      [
        0.0,
        0.0,
        1.0,
        0.0
      ],
      [
        0.0,
        0.0,
        0.0,
        1.0
      ]
    ],
    "dcmmeta_shape": [
      68,
      68,
      36,
      240
    ],
    "dcmmeta_slice_dim": 2,
    "dcmmeta_version": 0.6,
    "global": {
      "const": {
        "AcquisitionMatrix": [
          68,
          0,
          0,
          68
        ],
        "AngioFlag": "N",
        "BitsAllocated": 16,
        "BitsStored": 12,
        "Columns": 408,
        "EchoNumbers": 1,
        "EchoTime": 23.0,
        "EchoTrainLength": 1,
        "FlipAngle": 76.0,
        "HighBit": 11,
        "ImageOrientationPatient": [
          0.9998766325819,
          0.003023974402,
          0.01541347447836,
          2.8562889e-08,
          0.98129266351939,
          -0.1925219689361
        ],
        "ImagePositionPatient": [
          -611.7778485888,
          -615.89776934637,
          77.217873202227
        ],
        "ImageType": [
          "ORIGINAL",
          "PRIMARY",
          "M",
          "ND",
          "MOSAIC"
        ],
        "ImagedNucleus": "1H",
        "ImagingFrequency": 123.218485,
        "InPlanePhaseEncodingDirection": "COL",
        "MRAcquisitionType": "2D",
        "MagneticFieldStrength": 3.0,
        "Manufacturer": "SIEMENS",
        "ManufacturerModelName": "TrioTim",
        "Modality": "MR",
        "NumberOfAverages": 1.0,
        "NumberOfPhaseEncodingSteps": 68,
        "PercentPhaseFieldOfView": 100.0,
        "PercentSampling": 100.0,
        "PerformedProcedureStepStartTime": "152613.890000",
        "PhotometricInterpretation": "MONOCHROME2",
        "PixelBandwidth": 2451.0,
        "PixelRepresentation": 0,
        "PixelSpacing": [
          3.0,
          3.0
        ],
        "ProtocolName": "ep2d_bold_RestEPI_4",
        "RepetitionTime": 2000.0,
        "Rows": 408,
        "SAR": 0.17072721037996,
        "SamplesPerPixel": 1,
        "ScanOptions": "FS",
        "ScanningSequence": "EP",
        "SequenceName": "*epfid2d1_68",
        "SequenceVariant": "SK",
        "SeriesDescription": "ep2d_bold_RestEPI_4",
        "SeriesNumber": 10,
        "SeriesTime": "164157.484000",
        "SliceLocation": -33.185853951915,
        "SliceThickness": 2.5,
        "SmallestImagePixelValue": 0,
        "SoftwareVersions": "syngo MR B19",
        "SpacingBetweenSlices": 3.0000000377512,
        "SpecificCharacterSet": "ISO_IR 100",
        "StudyID": "1",
        "StudyTime": "152613.859000",
        "TransmitCoilName": "Body",
        "VariableFlipAngleFlag": "N",
        "WindowCenterWidthExplanation": "Algo1",
        "dBdt": 0.0
      },
      "slices": {}
    },
    "modality": "bold",
    "run_id": 4,
    "subject_id": "233",
    "task_id": "rest",
    "time": {
      "samples": {
        "AcquisitionNumber": [
          1,
          2,
          3,
          4,
          5,
          6,
          7,
          8,
          9,
          10,
          11,
          12,
          13,
          14,
          15,
          16,
          17,
          18,
          19,
          20,
          21,
          22,
          23,
          24,
          25,
          26,
          27,
          28,
          29,
          30,
          31,
          32,
          33,
          34,
          35,
          36,
          37,
          38,
          39,
          40,
          41,
          42,
          43,
          44,
          45,
          46,
          47,
          48,
          49,
          50,
          51,
          52,
          53,
          54,
          55,
          56,
          57,
          58,
          59,
          60,
          61,
          62,
          63,
          64,
          65,
          66,
          67,
          68,
          69,
          70,
          71,
          72,
          73,
          74,
          75,
          76,
          77,
          78,
          79,
          80,
          81,
          82,
          83,
          84,
          85,
          86,
          87,
          88,
          89,
          90,
          91,
          92,
          93,
          94,
          95,
          96,
          97,
          98,
          99,
          100,
          101,
          102,
          103,
          104,
          105,
          106,
          107,
          108,
          109,
          110,
          111,
          112,
          113,
          114,
          115,
          116,
          117,
          118,
          119,
          120,
          121,
          122,
          123,
          124,
          125,
          126,
          127,
          128,
          129,
          130,
          131,
          132,
          133,
          134,
          135,
          136,
          137,
          138,
          139,
          140,
          141,
          142,
          143,
          144,
          145,
          146,
          147,
          148,
          149,
          150,
          151,
          152,
          153,
          154,
          155,
          156,
          157,
          158,
          159,
          160,
          161,
          162,
          163,
          164,
          165,
          166,
          167,
          168,
          169,
          170,
          171,
          172,
          173,
          174,
          175,
          176,
          177,
          178,
          179,
          180,
          181,
          182,
          183,
          184,
          185,
          186,
          187,
          188,
          189,
          190,
          191,
          192,
          193,
          194,
          195,
          196,
          197,
          198,
          199,
          200,
          201,
          202,
          203,
          204,
          205,
          206,
          207,
          208,
          209,
          210,
          211,
          212,
          213,
          214,
          215,
          216,
          217,
          218,
          219,
          220,
          221,
          222,
          223,
          224,
          225,
          226,
          227,
          228,
          229,
          230,
          231,
          232,
          233,
          234,
          235,
          236,
          237,
          238,
          239,
          240
        ],
        "AcquisitionTime": [
          "164136.287500",
          "164138.297500",
          "164140.305000",
          "164142.312500",
          "164144.320000",
          "164146.330000",
          "164148.337500",
          "164150.345000",
          "164152.352500",
          "164154.360000",
          "164156.370000",
          "164158.377500",
          "164200.385000",
          "164202.392500",
          "164204.400000",
          "164206.410000",
          "164208.417500",
          "164210.425000",
          "164212.432500",
          "164214.442500",
          "164216.450000",
          "164218.457500",
          "164220.465000",
          "164222.472500",
          "164224.482500",
          "164226.490000",
          "164228.497500",
          "164230.505000",
          "164232.512500",
          "164234.522500",
          "164236.530000",
          "164238.537500",
          "164240.545000",
          "164242.552500",
          "164244.562500",
          "164246.570000",
          "164248.577500",
          "164250.585000",
          "164252.595000",
          "164254.602500",
          "164256.610000",
          "164258.617500",
          "164300.625000",
          "164302.635000",
          "164304.642500",
          "164306.650000",
          "164308.657500",
          "164310.665000",
          "164312.675000",
          "164314.682500",
          "164316.690000",
          "164318.697500",
          "164320.707500",
          "164322.715000",
          "164324.722500",
          "164326.730000",
          "164328.737500",
          "164330.747500",
          "164332.755000",
          "164334.762500",
          "164336.770000",
          "164338.777500",
          "164340.787500",
          "164342.795000",
          "164344.802500",
          "164346.810000",
          "164348.820000",
          "164350.827500",
          "164352.835000",
          "164354.842500",
          "164356.850000",
          "164358.860000",
          "164400.867500",
          "164402.875000",
          "164404.882500",
          "164406.890000",
          "164408.900000",
          "164410.907500",
          "164412.915000",
          "164414.922500",
          "164416.930000",
          "164418.940000",
          "164420.947500",
          "164422.955000",
          "164424.962500",
          "164426.972500",
          "164428.980000",
          "164430.987500",
          "164432.995000",
          "164435.002500",
          "164437.012500",
          "164439.020000",
          "164441.027500",
          "164443.035000",
          "164445.042500",
          "164447.052500",
          "164449.060000",
          "164451.067500",
          "164453.075000",
          "164455.085000",
          "164457.092500",
          "164459.100000",
          "164501.107500",
          "164503.115000",
          "164505.125000",
          "164507.132500",
          "164509.140000",
          "164511.147500",
          "164513.155000",
          "164515.165000",
          "164517.172500",
          "164519.180000",
          "164521.187500",
          "164523.197500",
          "164525.205000",
          "164527.212500",
          "164529.220000",
          "164531.227500",
          "164533.237500",
          "164535.245000",
          "164537.252500",
          "164539.260000",
          "164541.267500",
          "164543.277500",
          "164545.285000",
          "164547.292500",
          "164549.300000",
          "164551.307500",
          "164553.317500",
          "164555.325000",
          "164557.332500",
          "164559.340000",
          "164601.350000",
          "164603.357500",
          "164605.365000",
          "164607.372500",
          "164609.380000",
          "164611.390000",
          "164613.397500",
          "164615.405000",
          "164617.412500",
          "164619.420000",
          "164621.430000",
          "164623.437500",
          "164625.445000",
          "164627.452500",
          "164629.462500",
          "164631.470000",
          "164633.477500",
          "164635.485000",
          "164637.492500",
          "164639.502500",
          "164641.510000",
          "164643.517500",
          "164645.525000",
          "164647.532500",
          "164649.542500",
          "164651.550000",
          "164653.557500",
          "164655.565000",
          "164657.575000",
          "164659.582500",
          "164701.590000",
          "164703.597500",
          "164705.605000",
          "164707.615000",
          "164709.622500",
          "164711.630000",
          "164713.637500",
          "164715.645000",
          "164717.655000",
          "164719.662500",
          "164721.670000",
          "164723.677500",
          "164725.687500",
          "164727.695000",
          "164729.702500",
          "164731.710000",
          "164733.717500",
          "164735.727500",
          "164737.735000",
          "164739.742500",
          "164741.750000",
          "164743.757500",
          "164745.767500",
          "164747.775000",
          "164749.782500",
          "164751.790000",
          "164753.797500",
          "164755.807500",
          "164757.815000",
          "164759.822500",
          "164801.830000",
          "164803.840000",
          "164805.847500",
          "164807.855000",
          "164809.862500",
          "164811.870000",
          "164813.880000",
          "164815.887500",
          "164817.895000",
          "164819.902500",
          "164821.910000",
          "164823.920000",
          "164825.927500",
          "164827.935000",
          "164829.942500",
          "164831.952500",
          "164833.960000",
          "164835.967500",
          "164837.975000",
          "164839.982500",
          "164841.992500",
          "164844.000000",
          "164846.007500",
          "164848.015000",
          "164850.022500",
          "164852.032500",
          "164854.040000",
          "164856.047500",
          "164858.055000",
          "164900.065000",
          "164902.072500",
          "164904.080000",
          "164906.087500",
          "164908.095000",
          "164910.105000",
          "164912.112500",
          "164914.120000",
          "164916.127500",
          "164918.135000",
          "164920.145000",
          "164922.152500",
          "164924.160000",
          "164926.167500",
          "164928.175000",
          "164930.185000",
          "164932.192500",
          "164934.200000",
          "164936.207500"
        ],
        "ContentTime": [
          "164157.484000",
          "164157.484000",
          "164157.484000",
          "164157.500000",
          "164157.500000",
          "164157.500000",
          "164157.500000",
          "164157.500000",
          "164157.500000",
          "164157.500000",
          "164237.484000",
          "164237.484000",
          "164237.484000",
          "164237.484000",
          "164237.484000",
          "164237.484000",
          "164237.500000",
          "164237.500000",
          "164237.500000",
          "164237.500000",
          "164237.500000",
          "164237.500000",
          "164237.500000",
          "164237.515000",
          "164237.515000",
          "164237.515000",
          "164237.515000",
          "164237.515000",
          "164237.515000",
          "164237.515000",
          "164317.484000",
          "164317.484000",
          "164317.484000",
          "164317.484000",
          "164317.484000",
          "164317.500000",
          "164317.500000",
          "164317.500000",
          "164317.500000",
          "164317.500000",
          "164317.500000",
          "164317.500000",
          "164317.500000",
          "164317.515000",
          "164317.515000",
          "164317.515000",
          "164317.515000",
          "164317.515000",
          "164317.515000",
          "164317.515000",
          "164357.484000",
          "164357.484000",
          "164357.484000",
          "164357.484000",
          "164357.484000",
          "164357.500000",
          "164357.500000",
          "164357.500000",
          "164357.500000",
          "164357.500000",
          "164357.500000",
          "164357.500000",
          "164357.500000",
          "164357.515000",
          "164357.515000",
          "164357.515000",
          "164357.515000",
          "164357.515000",
          "164357.515000",
          "164357.515000",
          "164437.484000",
          "164437.484000",
          "164437.484000",
          "164437.484000",
          "164437.484000",
          "164437.484000",
          "164437.500000",
          "164437.500000",
          "164437.500000",
          "164437.500000",
          "164437.500000",
          "164437.500000",
          "164437.515000",
          "164437.515000",
          "164437.515000",
          "164437.515000",
          "164437.515000",
          "164437.515000",
          "164437.515000",
          "164437.515000",
          "164517.484000",
          "164517.484000",
          "164517.484000",
          "164517.484000",
          "164517.484000",
          "164517.500000",
          "164517.500000",
          "164517.500000",
          "164517.500000",
          "164517.500000",
          "164517.500000",
          "164517.500000",
          "164517.500000",
          "164517.515000",
          "164517.515000",
          "164517.515000",
          "164517.515000",
          "164517.515000",
          "164517.515000",
          "164517.515000",
          "164557.484000",
          "164557.484000",
          "164557.484000",
          "164557.484000",
          "164557.484000",
          "164557.500000",
          "164557.500000",
          "164557.500000",
          "164557.500000",
          "164557.500000",
          "164557.500000",
          "164557.500000",
          "164557.500000",
          "164557.515000",
          "164557.515000",
          "164557.515000",
          "164557.515000",
          "164557.515000",
          "164557.515000",
          "164557.515000",
          "164637.484000",
          "164637.484000",
          "164637.484000",
          "164637.484000",
          "164637.484000",
          "164637.500000",
          "164637.500000",
          "164637.500000",
          "164637.500000",
          "164637.500000",
          "164637.500000",
          "164637.500000",
          "164637.500000",
          "164637.515000",
          "164637.515000",
          "164637.515000",
          "164637.515000",
          "164637.515000",
          "164637.515000",
          "164637.515000",
          "164717.484000",
          "164717.484000",
          "164717.484000",
          "164717.484000",
          "164717.484000",
          "164717.484000",
          "164717.500000",
          "164717.500000",
          "164717.500000",
          "164717.500000",
          "164717.500000",
          "164717.500000",
          "164717.500000",
          "164717.515000",
          "164717.515000",
          "164717.515000",
          "164717.515000",
          "164717.515000",
          "164717.515000",
          "164717.515000",
          "164757.484000",
          "164757.484000",
          "164757.484000",
          "164757.484000",
          "164757.484000",
          "164757.500000",
          "164757.500000",
          "164757.500000",
          "164757.500000",
          "164757.500000",
          "164757.500000",
          "164757.500000",
          "164757.500000",
          "164757.515000",
          "164757.515000",
          "164757.515000",
          "164757.515000",
          "164757.515000",
          "164757.515000",
          "164757.515000",
          "164837.484000",
          "164837.484000",
          "164837.484000",
          "164837.484000",
          "164837.484000",
          "164837.484000",
          "164837.500000",
          "164837.500000",
          "164837.500000",
          "164837.500000",
          "164837.500000",
          "164837.500000",
          "164837.500000",
          "164837.515000",
          "164837.515000",
          "164837.515000",
          "164837.515000",
          "164837.515000",
          "164837.515000",
          "164837.515000",
          "164917.484000",
          "164917.484000",
          "164917.484000",
          "164917.484000",
          "164917.484000",
          "164917.500000",
          "164917.500000",
          "164917.500000",
          "164917.500000",
          "164917.500000",
          "164917.500000",
          "164917.500000",
          "164917.500000",
          "164917.515000",
          "164917.515000",
          "164917.515000",
          "164917.515000",
          "164917.515000",
          "164917.515000",
          "164917.515000",
          "164935.843000",
          "164935.843000",
          "164935.859000",
          "164935.859000",
          "164935.859000",
          "164935.859000",
          "164935.859000",
          "164935.859000",
          "164935.859000",
          "164935.875000"
        ],
        "InstanceCreationTime": [
          "164157.484000",
          "164157.484000",
          "164157.484000",
          "164157.500000",
          "164157.500000",
          "164157.500000",
          "164157.500000",
          "164157.500000",
          "164157.500000",
          "164157.500000",
          "164237.484000",
          "164237.484000",
          "164237.484000",
          "164237.484000",
          "164237.484000",
          "164237.484000",
          "164237.500000",
          "164237.500000",
          "164237.500000",
          "164237.500000",
          "164237.500000",
          "164237.500000",
          "164237.500000",
          "164237.515000",
          "164237.515000",
          "164237.515000",
          "164237.515000",
          "164237.515000",
          "164237.515000",
          "164237.515000",
          "164317.484000",
          "164317.484000",
          "164317.484000",
          "164317.484000",
          "164317.484000",
          "164317.500000",
          "164317.500000",
          "164317.500000",
          "164317.500000",
          "164317.500000",
          "164317.500000",
          "164317.500000",
          "164317.500000",
          "164317.515000",
          "164317.515000",
          "164317.515000",
          "164317.515000",
          "164317.515000",
          "164317.515000",
          "164317.515000",
          "164357.484000",
          "164357.484000",
          "164357.484000",
          "164357.484000",
          "164357.484000",
          "164357.500000",
          "164357.500000",
          "164357.500000",
          "164357.500000",
          "164357.500000",
          "164357.500000",
          "164357.500000",
          "164357.500000",
          "164357.515000",
          "164357.515000",
          "164357.515000",
          "164357.515000",
          "164357.515000",
          "164357.515000",
          "164357.515000",
          "164437.484000",
          "164437.484000",
          "164437.484000",
          "164437.484000",
          "164437.484000",
          "164437.484000",
          "164437.500000",
          "164437.500000",
          "164437.500000",
          "164437.500000",
          "164437.500000",
          "164437.500000",
          "164437.515000",
          "164437.515000",
          "164437.515000",
          "164437.515000",
          "164437.515000",
          "164437.515000",
          "164437.515000",
          "164437.515000",
          "164517.484000",
          "164517.484000",
          "164517.484000",
          "164517.484000",
          "164517.484000",
          "164517.500000",
          "164517.500000",
          "164517.500000",
          "164517.500000",
          "164517.500000",
          "164517.500000",
          "164517.500000",
          "164517.500000",
          "164517.515000",
          "164517.515000",
          "164517.515000",
          "164517.515000",
          "164517.515000",
          "164517.515000",
          "164517.515000",
          "164557.484000",
          "164557.484000",
          "164557.484000",
          "164557.484000",
          "164557.484000",
          "164557.500000",
          "164557.500000",
          "164557.500000",
          "164557.500000",
          "164557.500000",
          "164557.500000",
          "164557.500000",
          "164557.500000",
          "164557.515000",
          "164557.515000",
          "164557.515000",
          "164557.515000",
          "164557.515000",
          "164557.515000",
          "164557.515000",
          "164637.484000",
          "164637.484000",
          "164637.484000",
          "164637.484000",
          "164637.484000",
          "164637.500000",
          "164637.500000",
          "164637.500000",
          "164637.500000",
          "164637.500000",
          "164637.500000",
          "164637.500000",
          "164637.500000",
          "164637.515000",
          "164637.515000",
          "164637.515000",
          "164637.515000",
          "164637.515000",
          "164637.515000",
          "164637.515000",
          "164717.484000",
          "164717.484000",
          "164717.484000",
          "164717.484000",
          "164717.484000",
          "164717.484000",
          "164717.500000",
          "164717.500000",
          "164717.500000",
          "164717.500000",
          "164717.500000",
          "164717.500000",
          "164717.500000",
          "164717.515000",
          "164717.515000",
          "164717.515000",
          "164717.515000",
          "164717.515000",
          "164717.515000",
          "164717.515000",
          "164757.484000",
          "164757.484000",
          "164757.484000",
          "164757.484000",
          "164757.484000",
          "164757.500000",
          "164757.500000",
          "164757.500000",
          "164757.500000",
          "164757.500000",
          "164757.500000",
          "164757.500000",
          "164757.500000",
          "164757.515000",
          "164757.515000",
          "164757.515000",
          "164757.515000",
          "164757.515000",
          "164757.515000",
          "164757.515000",
          "164837.484000",
          "164837.484000",
          "164837.484000",
          "164837.484000",
          "164837.484000",
          "164837.484000",
          "164837.500000",
          "164837.500000",
          "164837.500000",
          "164837.500000",
          "164837.500000",
          "164837.500000",
          "164837.500000",
          "164837.515000",
          "164837.515000",
          "164837.515000",
          "164837.515000",
          "164837.515000",
          "164837.515000",
          "164837.515000",
          "164917.484000",
          "164917.484000",
          "164917.484000",
          "164917.484000",
          "164917.484000",
          "164917.500000",
          "164917.500000",
          "164917.500000",
          "164917.500000",
          "164917.500000",
          "164917.500000",
          "164917.500000",
          "164917.500000",
          "164917.515000",
          "164917.515000",
          "164917.515000",
          "164917.515000",
          "164917.515000",
          "164917.515000",
          "164917.515000",
          "164935.843000",
          "164935.843000",
          "164935.859000",
          "164935.859000",
          "164935.859000",
          "164935.859000",
          "164935.859000",
          "164935.859000",
          "164935.859000",
          "164935.875000"
        ],
        "InstanceNumber": [
          1,
          2,
          3,
          4,
          5,
          6,
          7,
          8,
          9,
          10,
          11,
          12,
          13,
          14,
          15,
          16,
          17,
          18,
          19,
          20,
          21,
          22,
          23,
          24,
          25,
          26,
          27,
          28,
          29,
          30,
          31,
          32,
          33,
          34,
          35,
          36,
          37,
          38,
          39,
          40,
          41,
          42,
          43,
          44,
          45,
          46,
