{
  "aor": 0.001063112840466926,
  "aqi": 0.010844717081712063,
  "bids_meta": {
    "AcquisitionMatrixPE": 68,
    "AcquisitionNumber": 1,
    "AcquisitionTime": "11:56:31.322500",
    "BandwidthPerPixelPhaseEncode": 31.289,
    "BaseResolution": 68,
    "CogAtlasID": "TODO",
    "CoilString": "C:HEA;HEP",
    "ConversionSoftware": "dcm2niix",
    "ConversionSoftwareVersion": "v1.0.20190902",
    "DerivedVendorReportedEchoSpacing": 0.000470002,
    "DeviceSerialNumber": "35450",
    "DwellTime": 3e-06,
    "EchoTime": 0.023,
    "EffectiveEchoSpacing": 0.000470002,
    "FlipAngle": 76,
    "ImageOrientationPatientDICOM": [
      0.999123,
      0.00270232,
      0.0417884,
      1.21929e-08,
      0.997916,
      -0.0645323
    ],
    "ImageType": [
      "ORIGINAL",
      "PRIMARY",
      "M",
      "ND",
      "MOSAIC"
    ],
    "ImagingFrequency": 123.219,
    "InPlanePhaseEncodingDirectionDICOM": "COL",
    "InstitutionAddress": "Univeristy_Ave._197_Newark_North_East_US_07102-1814",
    "InstitutionName": "RUBIC",
    "InstitutionalDepartmentName": "Department",
    "MRAcquisitionType": "2D",
    "MagneticFieldStrength": 3,
    "Manufacturer": "Siemens",
    "ManufacturersModelName": "TrioTim",
    "Modality": "MR",
    "PartialFourier": 1,
    "PatientPosition": "HFS",
    "PercentPhaseFOV": 100,
    "PhaseEncodingDirection": "j-",
    "PhaseEncodingSteps": 68,
    "PhaseResolution": 1,
    "PixelBandwidth": 2451,
    "ProcedureStepDescription": "Krekelberg_David",
    "ProtocolName": "ep2d_bold_CardGameEPI_1",
    "PulseSequenceDetails": "%SiemensSeq%_ep2d_bold",
    "ReceiveCoilName": "HeadMatrix",
    "ReconMatrixPE": 68,
    "RepetitionTime": 2,
    "SAR": 0.147094,
    "ScanOptions": "FS",
    "ScanningSequence": "EP",
    "SequenceName": "_epfid2d1_68",
    "SequenceVariant": "SK",
    "SeriesDescription": "ep2d_bold_CardGameEPI_1",
    "SeriesNumber": 6,
    "ShimSetting": [
      1999,
      -739,
      -7570,
      574,
      179,
      -12,
      -404,
      -100
    ],
    "SliceThickness": 2.5,
    "SliceTiming": [
      1.9525,
      1.8975,
      1.84,
      1.785,
      1.73,
      1.675,
      1.6175,
      1.5625,
      1.5075,
      1.45,
      1.395,
      1.34,
      1.2825,
      1.2275,
      1.1725,
      1.115,
      1.06,
      1.005,
      0.95,
      0.8925,
      0.8375,
      0.7825,
      0.725,
      0.67,
      0.615,
      0.5575,
      0.5025,
      0.4475,
      0.39,
      0.335,
      0.28,
      0.225,
      0.1675,
      0.1125,
      0.0575,
      0
    ],
    "SoftwareVersions": "syngo_MR_B19",
    "SpacingBetweenSlices": 3,
    "StationName": "MRC35450",
    "TaskName": "cardgame",
    "TotalReadoutTime": 0.0314901,
    "TxRefAmp": 315.623,
    "dataset": "<unset>",
    "dcmmeta_affine": [
      [
        -2.997368574142456,
        3.6578750695070994e-08,
        0.12562695145606995,
        97.00019073486328
      ],
      [
        -0.008106960915029049,
        2.993746757507324,
        -0.19342710077762604,
        -68.021728515625
      ],
      [
        0.12536509335041046,
        0.19359691441059113,
        2.9911208152770996,
        -37.23324966430664
      ],
      [
        0.0,
        0.0,
        0.0,
        1.0
      ]
    ],
    "dcmmeta_reorient_transform": [
      [
        0.0,
        -1.0,
        0.0,
        67.0
      ],
      [
        1.0,
        0.0,
        0.0,
        0.0
      ],
      [
        0.0,
        0.0,
        1.0,
        0.0
      ],
      [
        0.0,
        0.0,
        0.0,
        1.0
      ]
    ],
    "dcmmeta_shape": [
      68,
      68,
      36,
      258
    ],
    "dcmmeta_slice_dim": 2,
    "dcmmeta_version": 0.6,
    "global": {
      "const": {
        "AcquisitionMatrix": [
          68,
          0,
          0,
          68
        ],
        "AngioFlag": "N",
        "BitsAllocated": 16,
        "BitsStored": 12,
        "Columns": 408,
        "EchoNumbers": 1,
        "EchoTime": 23.0,
        "EchoTrainLength": 1,
        "FlipAngle": 76.0,
        "HighBit": 11,
        "ImageOrientationPatient": [
          0.99912283021673,
          0.00270232015781,
          0.04178836686777,
          1.2192917e-08,
          0.99791561842447,
          -0.064532305898
        ],
        "ImagePositionPatient": [
          -606.55284306026,
          -642.87446289722,
          -12.662847375039
        ],
        "ImageType": [
          "ORIGINAL",
          "PRIMARY",
          "M",
          "ND",
          "MOSAIC"
        ],
        "ImagedNucleus": "1H",
        "ImagingFrequency": 123.218553,
        "InPlanePhaseEncodingDirection": "COL",
        "MRAcquisitionType": "2D",
        "MagneticFieldStrength": 3.0,
        "Manufacturer": "SIEMENS",
        "ManufacturerModelName": "TrioTim",
        "Modality": "MR",
        "NumberOfAverages": 1.0,
        "NumberOfPhaseEncodingSteps": 68,
        "PercentPhaseFieldOfView": 100.0,
        "PercentSampling": 100.0,
        "PerformedProcedureStepStartTime": "113511.406000",
        "PhotometricInterpretation": "MONOCHROME2",
        "PixelBandwidth": 2451.0,
        "PixelRepresentation": 0,
        "PixelSpacing": [
          3.0,
          3.0
        ],
        "ProtocolName": "ep2d_bold_CardGameEPI_1",
        "RepetitionTime": 2000.0,
        "Rows": 408,
        "SAR": 0.14709431877559,
        "SamplesPerPixel": 1,
        "ScanOptions": "FS",
        "ScanningSequence": "EP",
        "SequenceName": "*epfid2d1_68",
        "SequenceVariant": "SK",
        "SeriesDescription": "ep2d_bold_CardGameEPI_1",
        "SeriesNumber": 6,
        "SeriesTime": "115714.218000",
        "SliceLocation": -28.675355140533,
        "SliceThickness": 2.5,
        "SmallestImagePixelValue": 0,
        "SoftwareVersions": "syngo MR B19",
        "SpacingBetweenSlices": 3.0000000807926,
        "SpecificCharacterSet": "ISO_IR 100",
        "StudyID": "1",
        "StudyTime": "113511.375000",
        "TransmitCoilName": "Body",
        "VariableFlipAngleFlag": "N",
        "WindowCenterWidthExplanation": "Algo1",
        "dBdt": 0.0
      },
      "slices": {}
    },
    "modality": "bold",
    "run_id": 1,
    "subject_id": "212",
    "task_id": "cardgame",
    "time": {
      "samples": {
        "AcquisitionNumber": [
          1,
          2,
          3,
          4,
          5,
          6,
          7,
          8,
          9,
          10,
          11,
          12,
          13,
          14,
          15,
          16,
          17,
          18,
          19,
          20,
          21,
          22,
          23,
          24,
          25,
          26,
          27,
          28,
          29,
          30,
          31,
          32,
          33,
          34,
          35,
          36,
          37,
          38,
          39,
          40,
          41,
          42,
          43,
          44,
          45,
          46,
          47,
          48,
          49,
          50,
          51,
          52,
          53,
          54,
          55,
          56,
          57,
          58,
          59,
          60,
          61,
          62,
          63,
          64,
          65,
          66,
          67,
          68,
          69,
          70,
          71,
          72,
          73,
          74,
          75,
          76,
          77,
          78,
          79,
          80,
          81,
          82,
          83,
          84,
          85,
          86,
          87,
          88,
          89,
          90,
          91,
          92,
          93,
          94,
          95,
          96,
          97,
          98,
          99,
          100,
          101,
          102,
          103,
          104,
          105,
          106,
          107,
          108,
          109,
          110,
          111,
          112,
          113,
          114,
          115,
          116,
          117,
          118,
          119,
          120,
          121,
          122,
          123,
          124,
          125,
          126,
          127,
          128,
          129,
          130,
          131,
          132,
          133,
          134,
          135,
          136,
          137,
          138,
          139,
          140,
          141,
          142,
          143,
          144,
          145,
          146,
          147,
          148,
          149,
          150,
          151,
          152,
          153,
          154,
          155,
          156,
          157,
          158,
          159,
          160,
          161,
          162,
          163,
          164,
          165,
          166,
          167,
          168,
          169,
          170,
          171,
          172,
          173,
          174,
          175,
          176,
          177,
          178,
          179,
          180,
          181,
          182,
          183,
          184,
          185,
          186,
          187,
          188,
          189,
          190,
          191,
          192,
          193,
          194,
          195,
          196,
          197,
          198,
          199,
          200,
          201,
          202,
          203,
          204,
          205,
          206,
          207,
          208,
          209,
          210,
          211,
          212,
          213,
          214,
          215,
          216,
          217,
          218,
          219,
          220,
          221,
          222,
          223,
          224,
          225,
          226,
          227,
          228,
          229,
          230,
          231,
          232,
          233,
          234,
          235,
          236,
          237,
          238,
          239,
          240,
          241,
          242,
          243,
          244,
          245,
          246,
          247,
          248,
          249,
          250,
          251,
          252,
          253,
          254,
          255,
          256,
          257,
          258
        ],
        "AcquisitionTime": [
          "115631.322500",
          "115633.330000",
          "115635.337500",
          "115637.347500",
          "115639.355000",
          "115641.362500",
          "115643.370000",
          "115645.380000",
          "115647.387500",
          "115649.395000",
          "115651.402500",
          "115653.410000",
          "115655.420000",
          "115657.427500",
          "115659.435000",
          "115701.442500",
          "115703.450000",
          "115705.460000",
          "115707.467500",
          "115709.475000",
          "115711.482500",
          "115713.492500",
          "115715.500000",
          "115717.507500",
          "115719.515000",
          "115721.522500",
          "115723.532500",
          "115725.540000",
          "115727.547500",
          "115729.555000",
          "115731.562500",
          "115733.572500",
          "115735.580000",
          "115737.587500",
          "115739.595000",
          "115741.602500",
          "115743.612500",
          "115745.620000",
          "115747.627500",
          "115749.635000",
          "115751.645000",
          "115753.652500",
          "115755.660000",
          "115757.667500",
          "115759.675000",
          "115801.685000",
          "115803.692500",
          "115805.700000",
          "115807.707500",
          "115809.715000",
          "115811.725000",
          "115813.732500",
          "115815.740000",
          "115817.747500",
          "115819.757500",
          "115821.765000",
          "115823.772500",
          "115825.780000",
          "115827.787500",
          "115829.797500",
          "115831.805000",
          "115833.812500",
          "115835.820000",
          "115837.827500",
          "115839.837500",
          "115841.845000",
          "115843.852500",
          "115845.860000",
          "115847.870000",
          "115849.877500",
          "115851.885000",
          "115853.892500",
          "115855.900000",
          "115857.910000",
          "115859.917500",
          "115901.925000",
          "115903.932500",
          "115905.940000",
          "115907.950000",
          "115909.957500",
          "115911.965000",
          "115913.972500",
          "115915.980000",
          "115917.990000",
          "115919.997500",
          "115922.005000",
          "115924.012500",
          "115926.022500",
          "115928.030000",
          "115930.037500",
          "115932.045000",
          "115934.052500",
          "115936.062500",
          "115938.070000",
          "115940.077500",
          "115942.085000",
          "115944.092500",
          "115946.102500",
          "115948.110000",
          "115950.117500",
          "115952.125000",
          "115954.135000",
          "115956.142500",
          "115958.150000",
          "120000.157500",
          "120002.165000",
          "120004.175000",
          "120006.182500",
          "120008.190000",
          "120010.197500",
          "120012.205000",
          "120014.215000",
          "120016.222500",
          "120018.230000",
          "120020.237500",
          "120022.247500",
          "120024.255000",
          "120026.262500",
          "120028.270000",
          "120030.277500",
          "120032.287500",
          "120034.295000",
          "120036.302500",
          "120038.310000",
          "120040.317500",
          "120042.327500",
          "120044.335000",
          "120046.342500",
          "120048.350000",
          "120050.360000",
          "120052.367500",
          "120054.375000",
          "120056.382500",
          "120058.390000",
          "120100.400000",
          "120102.407500",
          "120104.415000",
          "120106.422500",
          "120108.430000",
          "120110.440000",
          "120112.447500",
          "120114.455000",
          "120116.462500",
          "120118.470000",
          "120120.480000",
          "120122.487500",
          "120124.495000",
          "120126.502500",
          "120128.512500",
          "120130.520000",
          "120132.527500",
          "120134.535000",
          "120136.542500",
          "120138.552500",
          "120140.560000",
          "120142.567500",
          "120144.575000",
          "120146.582500",
          "120148.592500",
          "120150.600000",
          "120152.607500",
          "120154.615000",
          "120156.625000",
          "120158.632500",
          "120200.640000",
          "120202.647500",
          "120204.655000",
          "120206.665000",
          "120208.672500",
          "120210.680000",
          "120212.687500",
          "120214.695000",
          "120216.705000",
          "120218.712500",
          "120220.720000",
          "120222.727500",
          "120224.737500",
          "120226.745000",
          "120228.752500",
          "120230.760000",
          "120232.767500",
          "120234.777500",
          "120236.785000",
          "120238.792500",
          "120240.800000",
          "120242.807500",
          "120244.817500",
          "120246.825000",
          "120248.832500",
          "120250.840000",
          "120252.847500",
          "120254.857500",
          "120256.865000",
          "120258.872500",
          "120300.880000",
          "120302.890000",
          "120304.897500",
          "120306.905000",
          "120308.912500",
          "120310.920000",
          "120312.930000",
          "120314.937500",
          "120316.945000",
          "120318.952500",
          "120320.960000",
          "120322.970000",
          "120324.977500",
          "120326.985000",
          "120328.992500",
          "120331.002500",
          "120333.010000",
          "120335.017500",
          "120337.025000",
          "120339.032500",
          "120341.042500",
          "120343.050000",
          "120345.057500",
          "120347.065000",
          "120349.072500",
          "120351.082500",
          "120353.090000",
          "120355.097500",
          "120357.105000",
          "120359.115000",
          "120401.122500",
          "120403.130000",
          "120405.137500",
          "120407.145000",
          "120409.155000",
          "120411.162500",
          "120413.170000",
          "120415.177500",
          "120417.185000",
          "120419.195000",
          "120421.202500",
          "120423.210000",
          "120425.217500",
          "120427.225000",
          "120429.235000",
          "120431.242500",
          "120433.250000",
          "120435.257500",
          "120437.267500",
          "120439.275000",
          "120441.282500",
          "120443.290000",
          "120445.297500",
          "120447.307500",
          "120449.315000",
          "120451.322500",
          "120453.330000",
          "120455.337500",
          "120457.347500",
          "120459.355000",
          "120501.362500",
          "120503.370000",
          "120505.380000",
          "120507.387500"
        ],
        "ContentTime": [
          "115714.218000",
          "115714.218000",
          "115714.218000",
          "115714.218000",
          "115714.218000",
          "115714.234000",
          "115714.234000",
          "115714.234000",
          "115714.234000",
          "115714.234000",
          "115714.234000",
          "115714.234000",
          "115714.234000",
          "115714.250000",
          "115714.250000",
          "115714.265000",
          "115714.265000",
          "115714.265000",
          "115714.265000",
          "115714.265000",
          "115714.265000",
          "115754.203000",
          "115754.218000",
          "115754.218000",
          "115754.218000",
          "115754.218000",
          "115754.218000",
          "115754.218000",
          "115754.218000",
          "115754.234000",
          "115754.234000",
          "115754.234000",
          "115754.234000",
          "115754.234000",
          "115754.234000",
          "115754.250000",
          "115754.250000",
          "115754.250000",
          "115754.265000",
          "115754.265000",
          "115754.265000",
          "115814.203000",
          "115814.218000",
          "115814.218000",
          "115814.218000",
          "115814.218000",
          "115814.218000",
          "115814.218000",
          "115814.218000",
          "115814.234000",
          "115814.234000",
          "115854.203000",
          "115854.218000",
          "115854.218000",
          "115854.218000",
          "115854.218000",
          "115854.218000",
          "115854.218000",
          "115854.218000",
          "115854.234000",
          "115854.234000",
          "115854.234000",
          "115854.234000",
          "115854.234000",
          "115854.234000",
          "115854.250000",
          "115854.250000",
          "115854.250000",
          "115854.250000",
          "115854.250000",
          "115854.250000",
          "115934.203000",
          "115934.218000",
          "115934.218000",
          "115934.218000",
          "115934.218000",
          "115934.218000",
          "115934.218000",
          "115934.218000",
          "115934.234000",
          "115934.234000",
          "115934.234000",
          "115934.234000",
          "115934.234000",
          "115934.234000",
          "115934.234000",
          "115934.250000",
          "115934.250000",
          "115934.250000",
          "115934.250000",
          "115934.250000",
          "120014.203000",
          "120014.218000",
          "120014.218000",
          "120014.218000",
          "120014.218000",
          "120014.218000",
          "120014.218000",
          "120014.218000",
          "120014.234000",
          "120014.234000",
          "120014.234000",
          "120014.234000",
          "120014.234000",
          "120014.234000",
          "120014.234000",
          "120014.250000",
          "120014.250000",
          "120014.250000",
          "120014.250000",
          "120014.250000",
          "120054.203000",
          "120054.218000",
          "120054.218000",
          "120054.218000",
          "120054.218000",
          "120054.218000",
          "120054.218000",
          "120054.218000",
          "120054.234000",
          "120054.234000",
          "120054.234000",
          "120054.234000",
          "120054.234000",
          "120054.234000",
          "120054.234000",
          "120054.234000",
          "120054.250000",
          "120054.250000",
          "120054.250000",
          "120054.250000",
          "120134.203000",
          "120134.218000",
          "120134.218000",
          "120134.218000",
          "120134.218000",
          "120134.218000",
          "120134.218000",
          "120134.218000",
          "120134.234000",
          "120134.234000",
          "120134.234000",
          "120134.234000",
          "120134.234000",
          "120134.234000",
          "120134.234000",
          "120134.234000",
          "120134.250000",
          "120134.250000",
          "120134.250000",
          "120134.250000",
          "120214.203000",
          "120214.218000",
          "120214.218000",
          "120214.218000",
          "120214.218000",
          "120214.218000",
          "120214.218000",
          "120214.218000",
          "120214.234000",
          "120214.234000",
          "120214.234000",
          "120214.234000",
          "120214.234000",
          "120214.234000",
          "120214.234000",
          "120214.250000",
          "120214.250000",
          "120214.250000",
          "120214.250000",
          "120214.250000",
          "120254.203000",
          "120254.218000",
          "120254.218000",
          "120254.218000",
          "120254.218000",
          "120254.218000",
          "120254.218000",
          "120254.218000",
          "120254.234000",
          "120254.234000",
          "120254.234000",
          "120254.234000",
          "120254.234000",
          "120254.234000",
          "120254.234000",
          "120254.234000",
          "120254.250000",
          "120254.250000",
          "120254.250000",
          "120254.250000",
          "120334.203000",
          "120334.218000",
          "120334.218000",
          "120334.218000",
          "120334.218000",
          "120334.218000",
          "120334.218000",
          "120334.218000",
          "120334.234000",
          "120334.234000",
          "120334.234000",
          "120334.234000",
          "120334.234000",
          "120334.234000",
          "120334.234000",
          "120334.250000",
          "120334.250000",
          "120334.250000",
          "120334.250000",
          "120334.250000",
          "120414.203000",
          "120414.218000",
          "120414.218000",
          "120414.218000",
          "120414.218000",
          "120414.218000",
          "120414.218000",
          "120414.218000",
          "120414.234000",
          "120414.234000",
          "120414.234000",
          "120414.234000",
          "120414.234000",
          "120414.234000",
          "120414.234000",
          "120414.250000",
          "120414.250000",
          "120414.250000",
          "120414.250000",
          "120414.250000",
          "120454.203000",
          "120454.218000",
          "120454.218000",
          "120454.218000",
          "120454.218000",
          "120454.218000",
          "120454.218000",
          "120454.218000",
          "120454.234000",
          "120454.234000",
          "120454.234000",
          "120454.234000",
          "120454.234000",
          "120454.234000",
          "120454.234000",
          "120454.250000",
          "120454.250000",
          "120454.250000",
          "120454.250000",
          "120454.250000",
          "120506.625000",
          "120506.656000",
          "120506.656000",
          "120506.656000",
          "120506.671000",
          "120506.671000",
          "120506.671000"
        ],
        "InstanceCreationTime": [
          "115714.218000",
          "115714.218000",
          "115714.218000",
          "115714.218000",
          "115714.218000",
          "115714.234000",
          "115714.234000",
          "115714.234000",
          "115714.234000",
          "115714.234000",
          "115714.234000",
          "115714.234000",
          "115714.234000",
          "115714.250000",
          "115714.250000",
          "115714.265000",
          "115714.265000",
          "115714.265000",
          "115714.265000",
          "115714.265000",
          "115714.265000",
          "115754.203000",
          "115754.218000",
          "115754.218000",
          "115754.218000",
          "115754.218000",
          "115754.218000",
          "115754.218000",
          "115754.218000",
          "115754.234000",
          "115754.234000",
          "115754.234000",
          "115754.234000",
          "115754.234000",
          "115754.234000",
          "115754.250000",
          "115754.250000",
          "115754.250000",
          "115754.265000",
          "115754.265000",
          "115754.265000",
          "115814.203000",
          "115814.218000",
          "115814.218000",
          "115814.218000",
          "115814.218000",
          "115814.218000",
          "115814.218000",
          "115814.218000",
          "115814.234000",
          "115814.234000",
          "115854.203000",
          "115854.218000",
          "115854.218000",
          "115854.218000",
          "115854.218000",
          "115854.218000",
          "115854.218000",
          "115854.218000",
          "115854.234000",
          "115854.234000",
          "115854.234000",
          "115854.234000",
          "115854.234000",
          "115854.234000",
          "115854.250000",
          "115854.250000",
          "115854.250000",
          "115854.250000",
          "115854.250000",
          "115854.250000",
          "115934.203000",
          "115934.218000",
          "115934.218000",
          "115934.218000",
          "115934.218000",
          "115934.218000",
          "115934.218000",
          "115934.218000",
          "115934.234000",
          "115934.234000",
          "115934.234000",
          "115934.234000",
          "115934.234000",
          "115934.234000",
          "115934.234000",
          "115934.250000",
          "115934.250000",
          "115934.250000",
          "115934.250000",
          "115934.250000",
          "120014.203000",
          "120014.218000",
          "120014.218000",
          "120014.218000",
          "120014.218000",
          "120014.218000",
          "120014.218000",
          "120014.218000",
          "120014.234000",
          "120014.234000",
          "120014.234000",
          "120014.234000",
          "120014.234000",
          "120014.234000",
          "120014.234000",
          "120014.250000",
          "120014.250000",
          "120014.250000",
          "120014.250000",
          "120014.250000",
          "120054.203000",
          "120054.218000",
          "120054.218000",
          "120054.218000",
          "120054.218000",
          "120054.218000",
          "120054.218000",
          "120054.218000",
          "120054.234000",
          "120054.234000",
          "120054.234000",
          "120054.234000",
          "120054.234000",
          "120054.234000",
          "120054.234000",
          "120054.234000",
          "120054.250000",
          "120054.250000",
          "120054.250000",
          "120054.250000",
          "120134.203000",
          "120134.218000",
          "120134.218000",
          "120134.218000",
          "120134.218000",
          "120134.218000",
          "120134.218000",
          "120134.218000",
          "120134.234000",
          "120134.234000",
          "120134.234000",
          "120134.234000",
          "120134.234000",
          "120134.234000",
          "120134.234000",
          "120134.234000",
          "120134.250000",
          "120134.250000",
          "120134.250000",
          "120134.250000",
          "120214.203000",
          "120214.218000",
          "120214.218000",
          "120214.218000",
          "120214.218000",
          "120214.218000",
          "120214.218000",
          "120214.218000",
          "120214.234000",
          "120214.234000",
          "120214.234000",
          "120214.234000",
          "120214.234000",
          "120214.234000",
          "120214.234000",
          "120214.250000",
          "120214.250000",
          "120214.250000",
          "120214.250000",
          "120214.250000",
          "120254.203000",
          "120254.218000",
          "120254.218000",
          "120254.218000",
          "120254.218000",
          "120254.218000",
          "120254.218000",
          "120254.218000",
          "120254.234000",
          "120254.234000",
          "120254.234000",
          "120254.234000",
          "120254.234000",
          "120254.234000",
          "120254.234000",
          "120254.234000",
          "120254.250000",
          "120254.250000",
          "120254.250000",
          "120254.250000",
          "120334.203000",
          "120334.218000",
          "120334.218000",
          "120334.218000",
          "120334.218000",
          "120334.218000",
          "120334.218000",
          "120334.218000",
          "120334.234000",
          "120334.234000",
          "120334.234000",
          "120334.234000",
          "120334.234000",
          "120334.234000",
          "120334.234000",
          "120334.250000",
          "120334.250000",
          "120334.250000",
          "120334.250000",
          "120334.250000",
          "120414.203000",
          "120414.218000",
          "120414.218000",
          "120414.218000",
          "120414.218000",
          "120414.218000",
          "120414.218000",
