{
  "aor": 0.0057638333333333335,
  "aqi": 0.015588134291666667,
  "bids_meta": {
    "AcquisitionMatrixPE": 68,
    "AcquisitionNumber": 1,
    "AcquisitionTime": "12:05:52.347500",
    "BandwidthPerPixelPhaseEncode": 31.289,
    "BaseResolution": 68,
    "CogAtlasID": "TODO",
    "CoilString": "C:HEA;HEP",
    "ConversionSoftware": "dcm2niix",
    "ConversionSoftwareVersion": "v1.0.20190902",
    "DerivedVendorReportedEchoSpacing": 0.000470002,
    "DeviceSerialNumber": "35450",
    "DwellTime": 3e-06,
    "EchoTime": 0.023,
    "EffectiveEchoSpacing": 0.000470002,
    "FlipAngle": 76,
    "ImageOrientationPatientDICOM": [
      0.999123,
      0.00270232,
      0.0417884,
      1.21929e-08,
      0.997916,
      -0.0645323
    ],
    "ImageType": [
      "ORIGINAL",
      "PRIMARY",
      "M",
      "ND",
      "MOSAIC"
    ],
    "ImagingFrequency": 123.219,
    "InPlanePhaseEncodingDirectionDICOM": "COL",
    "InstitutionAddress": "Univeristy_Ave._197_Newark_North_East_US_07102-1814",
    "InstitutionName": "RUBIC",
    "InstitutionalDepartmentName": "Department",
    "MRAcquisitionType": "2D",
    "MagneticFieldStrength": 3,
    "Manufacturer": "Siemens",
    "ManufacturersModelName": "TrioTim",
    "Modality": "MR",
    "PartialFourier": 1,
    "PatientPosition": "HFS",
    "PercentPhaseFOV": 100,
    "PhaseEncodingDirection": "j-",
    "PhaseEncodingSteps": 68,
    "PhaseResolution": 1,
    "PixelBandwidth": 2451,
    "ProcedureStepDescription": "Krekelberg_David",
    "ProtocolName": "ep2d_bold_RestEPI_1",
    "PulseSequenceDetails": "%SiemensSeq%_ep2d_bold",
    "ReceiveCoilName": "HeadMatrix",
    "ReconMatrixPE": 68,
    "RepetitionTime": 2,
    "SAR": 0.147063,
    "ScanOptions": "FS",
    "ScanningSequence": "EP",
    "SequenceName": "_epfid2d1_68",
    "SequenceVariant": "SK",
    "SeriesDescription": "ep2d_bold_RestEPI_1",
    "SeriesNumber": 7,
    "ShimSetting": [
      1999,
      -739,
      -7570,
      574,
      179,
      -12,
      -404,
      -100
    ],
    "SliceThickness": 2.5,
    "SliceTiming": [
      1.95,
      1.895,
      1.84,
      1.785,
      1.7275,
      1.6725,
      1.6175,
      1.56,
      1.505,
      1.45,
      1.3925,
      1.3375,
      1.2825,
      1.225,
      1.17,
      1.115,
      1.06,
      1.0025,
      0.9475,
      0.8925,
      0.835,
      0.78,
      0.725,
      0.6675,
      0.6125,
      0.5575,
      0.5025,
      0.445,
      0.39,
      0.335,
      0.2775,
      0.2225,
      0.1675,
      0.11,
      0.055,
      0
    ],
    "SoftwareVersions": "syngo_MR_B19",
    "SpacingBetweenSlices": 3,
    "StationName": "MRC35450",
    "TaskName": "rest",
    "TotalReadoutTime": 0.0314901,
    "TxRefAmp": 315.623,
    "dataset": "<unset>",
    "dcmmeta_affine": [
      [
        -2.997368574142456,
        3.6578750695070994e-08,
        0.12562695145606995,
        97.00019073486328
      ],
      [
        -0.008106960915029049,
        2.993746757507324,
        -0.19342710077762604,
        -68.021728515625
      ],
      [
        0.12536509335041046,
        0.19359691441059113,
        2.9911208152770996,
        -37.23324966430664
      ],
      [
        0.0,
        0.0,
        0.0,
        1.0
      ]
    ],
    "dcmmeta_reorient_transform": [
      [
        0.0,
        -1.0,
        0.0,
        67.0
      ],
      [
        1.0,
        0.0,
        0.0,
        0.0
      ],
      [
        0.0,
        0.0,
        1.0,
        0.0
      ],
      [
        0.0,
        0.0,
        0.0,
        1.0
      ]
    ],
    "dcmmeta_shape": [
      68,
      68,
      36,
      240
    ],
    "dcmmeta_slice_dim": 2,
    "dcmmeta_version": 0.6,
    "global": {
      "const": {
        "AcquisitionMatrix": [
          68,
          0,
          0,
          68
        ],
        "AngioFlag": "N",
        "BitsAllocated": 16,
        "BitsStored": 12,
        "Columns": 408,
        "EchoNumbers": 1,
        "EchoTime": 23.0,
        "EchoTrainLength": 1,
        "FlipAngle": 76.0,
        "HighBit": 11,
        "ImageOrientationPatient": [
          0.99912283021673,
          0.00270232015781,
          0.04178836686777,
          1.2192917e-08,
          0.99791561842447,
          -0.064532305898
        ],
        "ImagePositionPatient": [
          -606.55284306026,
          -642.87446289722,
          -12.662847375039
        ],
        "ImageType": [
          "ORIGINAL",
          "PRIMARY",
          "M",
          "ND",
          "MOSAIC"
        ],
        "ImagedNucleus": "1H",
        "ImagingFrequency": 123.21858,
        "InPlanePhaseEncodingDirection": "COL",
        "MRAcquisitionType": "2D",
        "MagneticFieldStrength": 3.0,
        "Manufacturer": "SIEMENS",
        "ManufacturerModelName": "TrioTim",
        "Modality": "MR",
        "NumberOfAverages": 1.0,
        "NumberOfPhaseEncodingSteps": 68,
        "PercentPhaseFieldOfView": 100.0,
        "PercentSampling": 100.0,
        "PerformedProcedureStepStartTime": "113511.406000",
        "PhotometricInterpretation": "MONOCHROME2",
        "PixelBandwidth": 2451.0,
        "PixelRepresentation": 0,
        "PixelSpacing": [
          3.0,
          3.0
        ],
        "ProtocolName": "ep2d_bold_RestEPI_1",
        "RepetitionTime": 2000.0,
        "Rows": 408,
        "SAR": 0.14706285599648,
        "SamplesPerPixel": 1,
        "ScanOptions": "FS",
        "ScanningSequence": "EP",
        "SequenceName": "*epfid2d1_68",
        "SequenceVariant": "SK",
        "SeriesDescription": "ep2d_bold_RestEPI_1",
        "SeriesNumber": 7,
        "SeriesTime": "120648.343000",
        "SliceLocation": -28.675355140533,
        "SliceThickness": 2.5,
        "SmallestImagePixelValue": 0,
        "SoftwareVersions": "syngo MR B19",
        "SpacingBetweenSlices": 3.0000000807926,
        "SpecificCharacterSet": "ISO_IR 100",
        "StudyID": "1",
        "StudyTime": "113511.375000",
        "TransmitCoilName": "Body",
        "VariableFlipAngleFlag": "N",
        "WindowCenterWidthExplanation": "Algo1",
        "dBdt": 0.0
      },
      "slices": {}
    },
    "modality": "bold",
    "run_id": 1,
    "subject_id": "212",
    "task_id": "rest",
    "time": {
      "samples": {
        "AcquisitionNumber": [
          1,
          2,
          3,
          4,
          5,
          6,
          7,
          8,
          9,
          10,
          11,
          12,
          13,
          14,
          15,
          16,
          17,
          18,
          19,
          20,
          21,
          22,
          23,
          24,
          25,
          26,
          27,
          28,
          29,
          30,
          31,
          32,
          33,
          34,
          35,
          36,
          37,
          38,
          39,
          40,
          41,
          42,
          43,
          44,
          45,
          46,
          47,
          48,
          49,
          50,
          51,
          52,
          53,
          54,
          55,
          56,
          57,
          58,
          59,
          60,
          61,
          62,
          63,
          64,
          65,
          66,
          67,
          68,
          69,
          70,
          71,
          72,
          73,
          74,
          75,
          76,
          77,
          78,
          79,
          80,
          81,
          82,
          83,
          84,
          85,
          86,
          87,
          88,
          89,
          90,
          91,
          92,
          93,
          94,
          95,
          96,
          97,
          98,
          99,
          100,
          101,
          102,
          103,
          104,
          105,
          106,
          107,
          108,
          109,
          110,
          111,
          112,
          113,
          114,
          115,
          116,
          117,
          118,
          119,
          120,
          121,
          122,
          123,
          124,
          125,
          126,
          127,
          128,
          129,
          130,
          131,
          132,
          133,
          134,
          135,
          136,
          137,
          138,
          139,
          140,
          141,
          142,
          143,
          144,
          145,
          146,
          147,
          148,
          149,
          150,
          151,
          152,
          153,
          154,
          155,
          156,
          157,
          158,
          159,
          160,
          161,
          162,
          163,
          164,
          165,
          166,
          167,
          168,
          169,
          170,
          171,
          172,
          173,
          174,
          175,
          176,
          177,
          178,
          179,
          180,
          181,
          182,
          183,
          184,
          185,
          186,
          187,
          188,
          189,
          190,
          191,
          192,
          193,
          194,
          195,
          196,
          197,
          198,
          199,
          200,
          201,
          202,
          203,
          204,
          205,
          206,
          207,
          208,
          209,
          210,
          211,
          212,
          213,
          214,
          215,
          216,
          217,
          218,
          219,
          220,
          221,
          222,
          223,
          224,
          225,
          226,
          227,
          228,
          229,
          230,
          231,
          232,
          233,
          234,
          235,
          236,
          237,
          238,
          239,
          240
        ],
        "AcquisitionTime": [
          "120552.347500",
          "120554.357500",
          "120556.365000",
          "120558.372500",
          "120600.380000",
          "120602.390000",
          "120604.397500",
          "120606.405000",
          "120608.412500",
          "120610.420000",
          "120612.430000",
          "120614.437500",
          "120616.445000",
          "120618.452500",
          "120620.460000",
          "120622.470000",
          "120624.477500",
          "120626.485000",
          "120628.492500",
          "120630.500000",
          "120632.510000",
          "120634.517500",
          "120636.525000",
          "120638.532500",
          "120640.542500",
          "120642.550000",
          "120644.557500",
          "120646.565000",
          "120648.572500",
          "120650.582500",
          "120652.590000",
          "120654.597500",
          "120656.605000",
          "120658.612500",
          "120700.622500",
          "120702.630000",
          "120704.637500",
          "120706.645000",
          "120708.655000",
          "120710.662500",
          "120712.670000",
          "120714.677500",
          "120716.685000",
          "120718.695000",
          "120720.702500",
          "120722.710000",
          "120724.717500",
          "120726.725000",
          "120728.735000",
          "120730.742500",
          "120732.750000",
          "120734.757500",
          "120736.767500",
          "120738.775000",
          "120740.782500",
          "120742.790000",
          "120744.797500",
          "120746.807500",
          "120748.815000",
          "120750.822500",
          "120752.830000",
          "120754.837500",
          "120756.847500",
          "120758.855000",
          "120800.862500",
          "120802.870000",
          "120804.877500",
          "120806.887500",
          "120808.895000",
          "120810.902500",
          "120812.910000",
          "120814.920000",
          "120816.927500",
          "120818.935000",
          "120820.942500",
          "120822.950000",
          "120824.960000",
          "120826.967500",
          "120828.975000",
          "120830.982500",
          "120832.990000",
          "120835.000000",
          "120837.007500",
          "120839.015000",
          "120841.022500",
          "120843.032500",
          "120845.040000",
          "120847.047500",
          "120849.055000",
          "120851.062500",
          "120853.072500",
          "120855.080000",
          "120857.087500",
          "120859.095000",
          "120901.102500",
          "120903.112500",
          "120905.120000",
          "120907.127500",
          "120909.135000",
          "120911.145000",
          "120913.152500",
          "120915.160000",
          "120917.167500",
          "120919.175000",
          "120921.185000",
          "120923.192500",
          "120925.200000",
          "120927.207500",
          "120929.215000",
          "120931.225000",
          "120933.232500",
          "120935.240000",
          "120937.247500",
          "120939.257500",
          "120941.265000",
          "120943.272500",
          "120945.280000",
          "120947.287500",
          "120949.297500",
          "120951.305000",
          "120953.312500",
          "120955.320000",
          "120957.327500",
          "120959.337500",
          "121001.345000",
          "121003.352500",
          "121005.360000",
          "121007.367500",
          "121009.377500",
          "121011.385000",
          "121013.392500",
          "121015.400000",
          "121017.410000",
          "121019.417500",
          "121021.425000",
          "121023.432500",
          "121025.440000",
          "121027.450000",
          "121029.457500",
          "121031.465000",
          "121033.472500",
          "121035.480000",
          "121037.490000",
          "121039.497500",
          "121041.505000",
          "121043.512500",
          "121045.522500",
          "121047.530000",
          "121049.537500",
          "121051.545000",
          "121053.552500",
          "121055.562500",
          "121057.570000",
          "121059.577500",
          "121101.585000",
          "121103.592500",
          "121105.602500",
          "121107.610000",
          "121109.617500",
          "121111.625000",
          "121113.635000",
          "121115.642500",
          "121117.650000",
          "121119.657500",
          "121121.665000",
          "121123.675000",
          "121125.682500",
          "121127.690000",
          "121129.697500",
          "121131.705000",
          "121133.715000",
          "121135.722500",
          "121137.730000",
          "121139.737500",
          "121141.745000",
          "121143.755000",
          "121145.762500",
          "121147.770000",
          "121149.777500",
          "121151.787500",
          "121153.795000",
          "121155.802500",
          "121157.810000",
          "121159.817500",
          "121201.827500",
          "121203.835000",
          "121205.842500",
          "121207.850000",
          "121209.857500",
          "121211.867500",
          "121213.875000",
          "121215.882500",
          "121217.890000",
          "121219.900000",
          "121221.907500",
          "121223.915000",
          "121225.922500",
          "121227.930000",
          "121229.940000",
          "121231.947500",
          "121233.955000",
          "121235.962500",
          "121237.970000",
          "121239.980000",
          "121241.987500",
          "121243.995000",
          "121246.002500",
          "121248.012500",
          "121250.020000",
          "121252.027500",
          "121254.035000",
          "121256.042500",
          "121258.052500",
          "121300.060000",
          "121302.067500",
          "121304.075000",
          "121306.082500",
          "121308.092500",
          "121310.100000",
          "121312.107500",
          "121314.115000",
          "121316.122500",
          "121318.132500",
          "121320.140000",
          "121322.147500",
          "121324.155000",
          "121326.165000",
          "121328.172500",
          "121330.180000",
          "121332.187500",
          "121334.195000",
          "121336.205000",
          "121338.212500",
          "121340.220000",
          "121342.227500",
          "121344.235000",
          "121346.245000",
          "121348.252500",
          "121350.260000",
          "121352.267500"
        ],
        "ContentTime": [
          "120648.343000",
          "120648.343000",
          "120648.359000",
          "120648.359000",
          "120648.359000",
          "120648.359000",
          "120648.359000",
          "120648.359000",
          "120648.359000",
          "120648.359000",
          "120648.375000",
          "120648.375000",
          "120648.375000",
          "120648.375000",
          "120648.390000",
          "120648.390000",
          "120648.390000",
          "120648.390000",
          "120648.390000",
          "120648.390000",
          "120648.406000",
          "120648.406000",
          "120648.406000",
          "120648.406000",
          "120648.421000",
          "120648.421000",
          "120648.421000",
          "120648.421000",
          "120728.328000",
          "120728.343000",
          "120728.343000",
          "120728.343000",
          "120728.343000",
          "120728.343000",
          "120728.343000",
          "120728.343000",
          "120728.359000",
          "120728.359000",
          "120728.359000",
          "120728.359000",
          "120728.359000",
          "120728.359000",
          "120728.359000",
          "120728.375000",
          "120728.375000",
          "120728.375000",
          "120728.375000",
          "120728.375000",
          "120808.328000",
          "120808.343000",
          "120808.343000",
          "120808.343000",
          "120808.343000",
          "120808.343000",
          "120808.343000",
          "120808.359000",
          "120808.359000",
          "120808.359000",
          "120808.359000",
          "120808.359000",
          "120808.359000",
          "120808.359000",
          "120808.375000",
          "120808.375000",
          "120808.375000",
          "120808.375000",
          "120808.375000",
          "120808.390000",
          "120848.328000",
          "120848.343000",
          "120848.343000",
          "120848.343000",
          "120848.343000",
          "120848.343000",
          "120848.343000",
          "120848.343000",
          "120848.359000",
          "120848.359000",
          "120848.359000",
          "120848.359000",
          "120848.359000",
          "120848.359000",
          "120848.359000",
          "120848.375000",
          "120848.375000",
          "120848.375000",
          "120848.375000",
          "120848.375000",
          "120928.328000",
          "120928.343000",
          "120928.343000",
          "120928.343000",
          "120928.343000",
          "120928.343000",
          "120928.343000",
          "120928.343000",
          "120928.359000",
          "120928.359000",
          "120928.359000",
          "120928.359000",
          "120928.359000",
          "120928.359000",
          "120928.359000",
          "120928.375000",
          "120928.375000",
          "120928.375000",
          "120928.375000",
          "120928.375000",
          "121008.328000",
          "121008.343000",
          "121008.343000",
          "121008.343000",
          "121008.343000",
          "121008.343000",
          "121008.343000",
          "121008.343000",
          "121008.359000",
          "121008.359000",
          "121008.359000",
          "121008.359000",
          "121008.359000",
          "121008.359000",
          "121008.359000",
          "121008.359000",
          "121008.375000",
          "121008.375000",
          "121008.375000",
          "121008.375000",
          "121048.328000",
          "121048.343000",
          "121048.343000",
          "121048.343000",
          "121048.343000",
          "121048.343000",
          "121048.343000",
          "121048.343000",
          "121048.359000",
          "121048.359000",
          "121048.359000",
          "121048.359000",
          "121048.359000",
          "121048.359000",
          "121048.359000",
          "121048.375000",
          "121048.375000",
          "121048.375000",
          "121048.375000",
          "121048.375000",
          "121128.328000",
          "121128.343000",
          "121128.343000",
          "121128.343000",
          "121128.343000",
          "121128.343000",
          "121128.343000",
          "121128.343000",
          "121128.359000",
          "121128.359000",
          "121128.359000",
          "121128.359000",
          "121128.359000",
          "121128.359000",
          "121128.375000",
          "121128.375000",
          "121128.375000",
          "121128.375000",
          "121128.375000",
          "121128.375000",
          "121208.328000",
          "121208.343000",
          "121208.343000",
          "121208.343000",
          "121208.343000",
          "121208.343000",
          "121208.343000",
          "121208.343000",
          "121208.359000",
          "121208.359000",
          "121208.359000",
          "121208.359000",
          "121208.359000",
          "121208.375000",
          "121208.375000",
          "121208.375000",
          "121208.375000",
          "121208.375000",
          "121208.375000",
          "121208.390000",
          "121248.328000",
          "121248.343000",
          "121248.343000",
          "121248.343000",
          "121248.343000",
          "121248.343000",
          "121248.343000",
          "121248.343000",
          "121248.359000",
          "121248.359000",
          "121248.359000",
          "121248.359000",
          "121248.359000",
          "121248.359000",
          "121248.359000",
          "121248.359000",
          "121248.375000",
          "121248.375000",
          "121248.375000",
          "121248.375000",
          "121328.328000",
          "121328.343000",
          "121328.343000",
          "121328.343000",
          "121328.343000",
          "121328.343000",
          "121328.343000",
          "121328.343000",
          "121328.359000",
          "121328.359000",
          "121328.359000",
          "121328.359000",
          "121328.359000",
          "121328.359000",
          "121328.359000",
          "121328.359000",
          "121328.375000",
          "121328.375000",
          "121328.375000",
          "121328.375000",
          "121351.875000",
          "121351.890000",
          "121351.890000",
          "121351.890000",
          "121351.890000",
          "121351.890000",
          "121351.890000",
          "121351.906000",
          "121351.906000",
          "121351.906000",
          "121351.906000",
          "121351.906000"
        ],
        "InstanceCreationTime": [
          "120648.343000",
          "120648.343000",
          "120648.359000",
          "120648.359000",
          "120648.359000",
          "120648.359000",
          "120648.359000",
          "120648.359000",
          "120648.359000",
          "120648.359000",
          "120648.375000",
          "120648.375000",
          "120648.375000",
          "120648.375000",
          "120648.390000",
          "120648.390000",
          "120648.390000",
          "120648.390000",
          "120648.390000",
          "120648.390000",
          "120648.406000",
          "120648.406000",
          "120648.406000",
          "120648.406000",
          "120648.421000",
          "120648.421000",
          "120648.421000",
          "120648.421000",
          "120728.328000",
          "120728.343000",
          "120728.343000",
          "120728.343000",
          "120728.343000",
          "120728.343000",
          "120728.343000",
          "120728.343000",
          "120728.359000",
          "120728.359000",
          "120728.359000",
          "120728.359000",
          "120728.359000",
          "120728.359000",
          "120728.359000",
          "120728.375000",
          "120728.375000",
          "120728.375000",
          "120728.375000",
          "120728.375000",
          "120808.328000",
          "120808.343000",
          "120808.343000",
          "120808.343000",
          "120808.343000",
          "120808.343000",
          "120808.343000",
          "120808.359000",
          "120808.359000",
          "120808.359000",
          "120808.359000",
          "120808.359000",
          "120808.359000",
          "120808.359000",
          "120808.375000",
          "120808.375000",
          "120808.375000",
          "120808.375000",
          "120808.375000",
          "120808.390000",
          "120848.328000",
          "120848.343000",
          "120848.343000",
          "120848.343000",
          "120848.343000",
          "120848.343000",
          "120848.343000",
          "120848.343000",
          "120848.359000",
          "120848.359000",
          "120848.359000",
          "120848.359000",
          "120848.359000",
          "120848.359000",
          "120848.359000",
          "120848.375000",
          "120848.375000",
          "120848.375000",
          "120848.375000",
          "120848.375000",
          "120928.328000",
          "120928.343000",
          "120928.343000",
          "120928.343000",
          "120928.343000",
          "120928.343000",
          "120928.343000",
          "120928.343000",
          "120928.359000",
          "120928.359000",
          "120928.359000",
          "120928.359000",
          "120928.359000",
          "120928.359000",
          "120928.359000",
          "120928.375000",
          "120928.375000",
          "120928.375000",
          "120928.375000",
          "120928.375000",
          "121008.328000",
          "121008.343000",
          "121008.343000",
          "121008.343000",
          "121008.343000",
          "121008.343000",
          "121008.343000",
          "121008.343000",
          "121008.359000",
          "121008.359000",
          "121008.359000",
          "121008.359000",
          "121008.359000",
          "121008.359000",
          "121008.359000",
          "121008.359000",
          "121008.375000",
          "121008.375000",
          "121008.375000",
          "121008.375000",
          "121048.328000",
          "121048.343000",
          "121048.343000",
          "121048.343000",
          "121048.343000",
          "121048.343000",
          "121048.343000",
          "121048.343000",
          "121048.359000",
          "121048.359000",
          "121048.359000",
          "121048.359000",
          "121048.359000",
          "121048.359000",
          "121048.359000",
          "121048.375000",
          "121048.375000",
          "121048.375000",
          "121048.375000",
          "121048.375000",
          "121128.328000",
          "121128.343000",
          "121128.343000",
          "121128.343000",
          "121128.343000",
          "121128.343000",
          "121128.343000",
          "121128.343000",
          "121128.359000",
          "121128.359000",
          "121128.359000",
          "121128.359000",
          "121128.359000",
          "121128.359000",
          "121128.375000",
          "121128.375000",
          "121128.375000",
          "121128.375000",
          "121128.375000",
          "121128.375000",
          "121208.328000",
          "121208.343000",
          "121208.343000",
          "121208.343000",
          "121208.343000",
          "121208.343000",
          "121208.343000",
          "121208.343000",
          "121208.359000",
          "121208.359000",
          "121208.359000",
          "121208.359000",
          "121208.359000",
          "121208.375000",
          "121208.375000",
          "121208.375000",
          "121208.375000",
          "121208.375000",
          "121208.375000",
          "121208.390000",
          "121248.328000",
          "121248.343000",
          "121248.343000",
          "121248.343000",
          "121248.343000",
          "121248.343000",
          "121248.343000",
          "121248.343000",
          "121248.359000",
          "121248.359000",
          "121248.359000",
          "121248.359000",
          "121248.359000",
          "121248.359000",
          "121248.359000",
          "121248.359000",
          "121248.375000",
          "121248.375000",
          "121248.375000",
          "121248.375000",
          "121328.328000",
          "121328.343000",
          "121328.343000",
          "121328.343000",
          "121328.343000",
          "121328.343000",
          "121328.343000",
          "121328.343000",
          "121328.359000",
          "121328.359000",
          "121328.359000",
          "121328.359000",
          "121328.359000",
          "121328.359000",
          "121328.359000",
          "121328.359000",
          "121328.375000",
          "121328.375000",
          "121328.375000",
          "121328.375000",
          "121351.875000",
          "121351.890000",
          "121351.890000",
          "121351.890000",
          "121351.890000",
          "121351.890000",
          "121351.890000",
          "121351.906000",
          "121351.906000",
          "121351.906000",
          "121351.906000",
          "121351.906000"
        ],
        "InstanceNumber": [
          1,
          2,
          3,
          4,
          5,
          6,
          7,
          8,
          9,
          10,
          11,
          12,
          13,
          14,
          15,
          16,
          17,
          18,
          19,
          20,
          21,
          22,
          23,
          24,
          25,
          26,
          27,
          28,
          29,
          30,
          31,
          32,
          33,
          34,
          35,
          36,
          37,
          38,
          39,
          40,
          41,
          42,
          43,
          44,
          45,
          46,
