{
  "AcquisitionMatrixPE": 68,
  "AcquisitionNumber": 1,
  "AcquisitionTime": "12:46:54.087500",
  "BandwidthPerPixelPhaseEncode": 31.289,
  "BaseResolution": 68,
  "CoilString": "C:HEA;HEP",
  "ConversionSoftware": "dcm2niix",
  "ConversionSoftwareVersion": "v1.0.20190902",
  "DerivedVendorReportedEchoSpacing": 0.000470002,
  "DeviceSerialNumber": "35450",
  "DwellTime": 3e-06,
  "EchoTime": 0.023,
  "EffectiveEchoSpacing": 0.000470002,
  "FlipAngle": 76,
  "ImageOrientationPatientDICOM": [0.999123, 0.00270232, 0.0417884, 1.21929e-08, 0.997916, -0.0645323],
  "ImageType": [
    "ORIGINAL",
    "PRIMARY",
    "M",
    "ND",
    "MOSAIC"
],
  "ImagingFrequency": 123.219,
  "InPlanePhaseEncodingDirectionDICOM": "COL",
  "InstitutionAddress": "Univeristy_Ave._197_Newark_North_East_US_07102-1814",
  "InstitutionName": "RUBIC",
  "InstitutionalDepartmentName": "Department",
  "MRAcquisitionType": "2D",
  "MagneticFieldStrength": 3,
  "Manufacturer": "Siemens",
  "ManufacturersModelName": "TrioTim",
  "Modality": "MR",
  "PartialFourier": 1,
  "PatientPosition": "HFS",
  "PercentPhaseFOV": 100,
  "PhaseEncodingDirection": "j-",
  "PhaseEncodingSteps": 68,
  "PhaseResolution": 1,
  "PixelBandwidth": 2451,
  "ProcedureStepDescription": "Krekelberg_David",
  "ProtocolName": "ep2d_bold_CardGameEPI_3",
  "PulseSequenceDetails": "%SiemensSeq%_ep2d_bold",
  "ReceiveCoilName": "HeadMatrix",
  "ReconMatrixPE": 68,
  "RepetitionTime": 2,
  "SAR": 0.147094,
  "ScanOptions": "FS",
  "ScanningSequence": "EP",
  "SequenceName": "_epfid2d1_68",
  "SequenceVariant": "SK",
  "SeriesDescription": "ep2d_bold_CardGameEPI_3",
  "SeriesNumber": 11,
  "ShimSetting": [1999, -739, -7570, 574, 179, -12, -404, -100],
  "SliceThickness": 2.5,
  "SliceTiming": [1.9525, 1.8975, 1.84, 1.785, 1.73, 1.6725, 1.6175, 1.5625, 1.5075, 1.45, 1.395, 1.34, 1.2825, 1.2275, 1.1725, 1.115, 1.06, 1.005, 0.9475, 0.8925, 0.8375, 0.7825, 0.725, 0.67, 0.615, 0.5575, 0.5025, 0.4475, 0.39, 0.335, 0.28, 0.225, 0.1675, 0.1125, 0.0575, 0],
  "SoftwareVersions": "syngo_MR_B19",
  "SpacingBetweenSlices": 3,
  "StationName": "MRC35450",
  "TaskName": "cardgame",
  "TotalReadoutTime": 0.0314901,
  "TxRefAmp": 315.623,
  "dcmmeta_affine": [
    [-2.997368574142456, 3.6578750695070994e-08, 0.12562695145606995, 97.00019073486328],
    [-0.008106960915029049, 2.993746757507324, -0.19342710077762604, -68.021728515625],
    [0.12536509335041046, 0.19359691441059113, 2.9911208152770996, -37.23324966430664],
    [0.0, 0.0, 0.0, 1.0]
],
  "dcmmeta_reorient_transform": [
    [0.0, -1.0, 0.0, 67.0],
    [1.0, 0.0, 0.0, 0.0],
    [0.0, 0.0, 1.0, 0.0],
    [0.0, 0.0, 0.0, 1.0]
],
  "dcmmeta_shape": [68, 68, 36, 258],
  "dcmmeta_slice_dim": 2,
  "dcmmeta_version": 0.6,
  "global": {
    "const": {
      "AcquisitionMatrix": [68, 0, 0, 68],
      "AngioFlag": "N",
      "BitsAllocated": 16,
      "BitsStored": 12,
      "Columns": 408,
      "EchoNumbers": 1,
      "EchoTime": 23.0,
      "EchoTrainLength": 1,
      "FlipAngle": 76.0,
      "HighBit": 11,
      "ImageOrientationPatient": [0.99912283021673, 0.00270232015781, 0.04178836686777, 1.2192917e-08, 0.99791561842447, -0.064532305898],
      "ImagePositionPatient": [-606.55284306026, -642.87446289722, -12.662847375039],
      "ImageType": [
        "ORIGINAL",
        "PRIMARY",
        "M",
        "ND",
        "MOSAIC"
],
      "ImagedNucleus": "1H",
      "ImagingFrequency": 123.218657,
      "InPlanePhaseEncodingDirection": "COL",
      "MRAcquisitionType": "2D",
      "MagneticFieldStrength": 3.0,
      "Manufacturer": "SIEMENS",
      "ManufacturerModelName": "TrioTim",
      "Modality": "MR",
      "NumberOfAverages": 1.0,
      "NumberOfPhaseEncodingSteps": 68,
      "PercentPhaseFieldOfView": 100.0,
      "PercentSampling": 100.0,
      "PerformedProcedureStepStartTime": "113511.406000",
      "PhotometricInterpretation": "MONOCHROME2",
      "PixelBandwidth": 2451.0,
      "PixelRepresentation": 0,
      "PixelSpacing": [3.0, 3.0],
      "ProtocolName": "ep2d_bold_CardGameEPI_3",
      "RepetitionTime": 2000.0,
      "Rows": 408,
      "SAR": 0.14709431877559,
      "SamplesPerPixel": 1,
      "ScanOptions": "FS",
      "ScanningSequence": "EP",
      "SequenceName": "*epfid2d1_68",
      "SequenceVariant": "SK",
      "SeriesDescription": "ep2d_bold_CardGameEPI_3",
      "SeriesNumber": 11,
      "SeriesTime": "124734.218000",
      "SliceLocation": -28.675355140533,
      "SliceThickness": 2.5,
      "SmallestImagePixelValue": 0,
      "SoftwareVersions": "syngo MR B19",
      "SpacingBetweenSlices": 3.0000000807926,
      "SpecificCharacterSet": "ISO_IR 100",
      "StudyID": "1",
      "StudyTime": "113511.375000",
      "TransmitCoilName": "Body",
      "VariableFlipAngleFlag": "N",
      "WindowCenterWidthExplanation": "Algo1",
      "dBdt": 0.0},
    "slices": {}
  },
  "time": {
    "samples": {
      "AcquisitionNumber": [1, 2, 3, 4, 5, 6, 7, 8, 9, 10, 11, 12, 13, 14, 15, 16, 17, 18, 19, 20, 21, 22, 23, 24, 25, 26, 27, 28, 29, 30, 31, 32, 33, 34, 35, 36, 37, 38, 39, 40, 41, 42, 43, 44, 45, 46, 47, 48, 49, 50, 51, 52, 53, 54, 55, 56, 57, 58, 59, 60, 61, 62, 63, 64, 65, 66, 67, 68, 69, 70, 71, 72, 73, 74, 75, 76, 77, 78, 79, 80, 81, 82, 83, 84, 85, 86, 87, 88, 89, 90, 91, 92, 93, 94, 95, 96, 97, 98, 99, 100, 101, 102, 103, 104, 105, 106, 107, 108, 109, 110, 111, 112, 113, 114, 115, 116, 117, 118, 119, 120, 121, 122, 123, 124, 125, 126, 127, 128, 129, 130, 131, 132, 133, 134, 135, 136, 137, 138, 139, 140, 141, 142, 143, 144, 145, 146, 147, 148, 149, 150, 151, 152, 153, 154, 155, 156, 157, 158, 159, 160, 161, 162, 163, 164, 165, 166, 167, 168, 169, 170, 171, 172, 173, 174, 175, 176, 177, 178, 179, 180, 181, 182, 183, 184, 185, 186, 187, 188, 189, 190, 191, 192, 193, 194, 195, 196, 197, 198, 199, 200, 201, 202, 203, 204, 205, 206, 207, 208, 209, 210, 211, 212, 213, 214, 215, 216, 217, 218, 219, 220, 221, 222, 223, 224, 225, 226, 227, 228, 229, 230, 231, 232, 233, 234, 235, 236, 237, 238, 239, 240, 241, 242, 243, 244, 245, 246, 247, 248, 249, 250, 251, 252, 253, 254, 255, 256, 257, 258],
      "AcquisitionTime": ["124654.087500", "124656.095000", "124658.102500", "124700.112500", "124702.120000", "124704.127500", "124706.135000", "124708.142500", "124710.152500", "124712.160000", "124714.167500", "124716.175000", "124718.185000", "124720.192500", "124722.200000", "124724.207500", "124726.215000", "124728.225000", "124730.232500", "124732.240000", "124734.247500", "124736.255000", "124738.265000", "124740.272500", "124742.280000", "124744.287500", "124746.297500", "124748.305000", "124750.312500", "124752.320000", "124754.327500", "124756.337500", "124758.345000", "124800.352500", "124802.360000", "124804.367500", "124806.377500", "124808.385000", "124810.392500", "124812.400000", "124814.407500", "124816.417500", "124818.425000", "124820.432500", "124822.440000", "124824.450000", "124826.457500", "124828.465000", "124830.472500", "124832.480000", "124834.490000", "124836.497500", "124838.505000", "124840.512500", "124842.520000", "124844.530000", "124846.537500", "124848.545000", "124850.552500", "124852.562500", "124854.570000", "124856.577500", "124858.585000", "124900.592500", "124902.602500", "124904.610000", "124906.617500", "124908.625000", "124910.632500", "124912.642500", "124914.650000", "124916.657500", "124918.665000", "124920.675000", "124922.682500", "124924.690000", "124926.697500", "124928.705000", "124930.715000", "124932.722500", "124934.730000", "124936.737500", "124938.745000", "124940.755000", "124942.762500", "124944.770000", "124946.777500", "124948.785000", "124950.795000", "124952.802500", "124954.810000", "124956.817500", "124958.827500", "125000.835000", "125002.842500", "125004.850000", "125006.857500", "125008.867500", "125010.875000", "125012.882500", "125014.890000", "125016.897500", "125018.907500", "125020.915000", "125022.922500", "125024.930000", "125026.940000", "125028.947500", "125030.955000", "125032.962500", "125034.970000", "125036.980000", "125038.987500", "125040.995000", "125043.002500", "125045.010000", "125047.020000", "125049.027500", "125051.035000", "125053.042500", "125055.052500", "125057.060000", "125059.067500", "125101.075000", "125103.082500", "125105.092500", "125107.100000", "125109.107500", "125111.115000", "125113.122500", "125115.132500", "125117.140000", "125119.147500", "125121.155000", "125123.162500", "125125.172500", "125127.180000", "125129.187500", "125131.195000", "125133.205000", "125135.212500", "125137.220000", "125139.227500", "125141.235000", "125143.245000", "125145.252500", "125147.260000", "125149.267500", "125151.275000", "125153.285000", "125155.292500", "125157.300000", "125159.307500", "125201.317500", "125203.325000", "125205.332500", "125207.340000", "125209.347500", "125211.357500", "125213.365000", "125215.372500", "125217.380000", "125219.387500", "125221.397500", "125223.405000", "125225.412500", "125227.420000", "125229.430000", "125231.437500", "125233.445000", "125235.452500", "125237.460000", "125239.470000", "125241.477500", "125243.485000", "125245.492500", "125247.500000", "125249.510000", "125251.517500", "125253.525000", "125255.532500", "125257.540000", "125259.550000", "125301.557500", "125303.565000", "125305.572500", "125307.582500", "125309.590000", "125311.597500", "125313.605000", "125315.612500", "125317.622500", "125319.630000", "125321.637500", "125323.645000", "125325.652500", "125327.662500", "125329.670000", "125331.677500", "125333.685000", "125335.695000", "125337.702500", "125339.710000", "125341.717500", "125343.725000", "125345.735000", "125347.742500", "125349.750000", "125351.757500", "125353.765000", "125355.775000", "125357.782500", "125359.790000", "125401.797500", "125403.807500", "125405.815000", "125407.822500", "125409.830000", "125411.837500", "125413.847500", "125415.855000", "125417.862500", "125419.870000", "125421.877500", "125423.887500", "125425.895000", "125427.902500", "125429.910000", "125431.917500", "125433.927500", "125435.935000", "125437.942500", "125439.950000", "125441.960000", "125443.967500", "125445.975000", "125447.982500", "125449.990000", "125452.000000", "125454.007500", "125456.015000", "125458.022500", "125500.030000", "125502.040000", "125504.047500", "125506.055000", "125508.062500", "125510.072500", "125512.080000", "125514.087500", "125516.095000", "125518.102500", "125520.112500", "125522.120000", "125524.127500", "125526.135000", "125528.142500", "125530.152500"],
      "ContentTime": ["124734.218000", "124734.218000", "124734.234000", "124734.234000", "124734.234000", "124734.234000", "124734.234000", "124734.234000", "124734.234000", "124734.250000", "124734.250000", "124734.250000", "124734.250000", "124734.250000", "124734.250000", "124734.250000", "124734.250000", "124734.265000", "124734.265000", "124734.265000", "124814.203000", "124814.218000", "124814.218000", "124814.218000", "124814.218000", "124814.234000", "124814.234000", "124814.234000", "124814.234000", "124814.234000", "124814.234000", "124814.234000", "124814.234000", "124814.250000", "124814.250000", "124814.250000", "124814.250000", "124814.265000", "124814.265000", "124814.265000", "124854.203000", "124854.218000", "124854.218000", "124854.218000", "124854.218000", "124854.218000", "124854.218000", "124854.234000", "124854.234000", "124854.234000", "124854.234000", "124854.234000", "124854.234000", "124854.234000", "124854.250000", "124854.250000", "124854.250000", "124854.250000", "124854.250000", "124854.250000", "124934.203000", "124934.218000", "124934.218000", "124934.218000", "124934.218000", "124934.218000", "124934.218000", "124934.218000", "124934.234000", "124934.234000", "124934.234000", "124934.234000", "124934.234000", "124934.234000", "124934.234000", "124934.250000", "124934.250000", "124934.250000", "124934.250000", "124934.250000", "125014.203000", "125014.218000", "125014.218000", "125014.218000", "125014.218000", "125014.218000", "125014.218000", "125014.218000", "125014.234000", "125014.234000", "125014.234000", "125014.234000", "125014.234000", "125014.234000", "125014.234000", "125014.250000", "125014.250000", "125014.250000", "125014.250000", "125014.250000", "125054.203000", "125054.218000", "125054.218000", "125054.218000", "125054.218000", "125054.218000", "125054.218000", "125054.218000", "125054.234000", "125054.234000", "125054.234000", "125054.234000", "125054.234000", "125054.234000", "125054.234000", "125054.250000", "125054.250000", "125054.250000", "125054.250000", "125054.250000", "125134.203000", "125134.218000", "125134.218000", "125134.218000", "125134.218000", "125134.218000", "125134.218000", "125134.218000", "125134.218000", "125134.234000", "125134.234000", "125134.234000", "125134.234000", "125134.250000", "125134.250000", "125134.250000", "125134.250000", "125134.250000", "125134.250000", "125134.250000", "125214.203000", "125214.218000", "125214.218000", "125214.218000", "125214.218000", "125214.218000", "125214.218000", "125214.218000", "125214.234000", "125214.234000", "125214.234000", "125214.234000", "125214.234000", "125214.250000", "125214.250000", "125214.250000", "125214.250000", "125214.250000", "125214.250000", "125214.250000", "125254.203000", "125254.218000", "125254.218000", "125254.218000", "125254.218000", "125254.218000", "125254.218000", "125254.218000", "125254.234000", "125254.234000", "125254.234000", "125254.234000", "125254.234000", "125254.234000", "125254.234000", "125254.250000", "125254.250000", "125254.250000", "125254.250000", "125254.250000", "125334.203000", "125334.218000", "125334.218000", "125334.218000", "125334.218000", "125334.218000", "125334.218000", "125334.218000", "125334.234000", "125334.234000", "125334.234000", "125334.234000", "125334.234000", "125334.234000", "125334.234000", "125334.250000", "125334.250000", "125334.250000", "125334.250000", "125334.250000", "125414.203000", "125414.218000", "125414.218000", "125414.218000", "125414.218000", "125414.218000", "125414.218000", "125414.218000", "125414.234000", "125414.234000", "125414.234000", "125414.234000", "125414.234000", "125414.234000", "125414.234000", "125414.250000", "125414.250000", "125414.250000", "125414.250000", "125414.250000", "125454.203000", "125454.218000", "125454.218000", "125454.218000", "125454.218000", "125454.218000", "125454.218000", "125454.218000", "125454.234000", "125454.234000", "125454.234000", "125454.234000", "125454.234000", "125454.234000", "125454.234000", "125454.250000", "125454.250000", "125454.250000", "125454.250000", "125454.250000", "125529.906000", "125529.906000", "125529.906000", "125529.906000", "125529.906000", "125529.921000", "125529.921000", "125529.921000", "125529.921000", "125529.921000", "125529.921000", "125529.921000", "125529.937000", "125529.937000", "125529.937000", "125529.937000", "125529.937000", "125529.937000"],
      "InstanceCreationTime": ["124734.218000", "124734.218000", "124734.234000", "124734.234000", "124734.234000", "124734.234000", "124734.234000", "124734.234000", "124734.234000", "124734.250000", "124734.250000", "124734.250000", "124734.250000", "124734.250000", "124734.250000", "124734.250000", "124734.250000", "124734.265000", "124734.265000", "124734.265000", "124814.203000", "124814.218000", "124814.218000", "124814.218000", "124814.218000", "124814.234000", "124814.234000", "124814.234000", "124814.234000", "124814.234000", "124814.234000", "124814.234000", "124814.234000", "124814.250000", "124814.250000", "124814.250000", "124814.250000", "124814.265000", "124814.265000", "124814.265000", "124854.203000", "124854.218000", "124854.218000", "124854.218000", "124854.218000", "124854.218000", "124854.218000", "124854.234000", "124854.234000", "124854.234000", "124854.234000", "124854.234000", "124854.234000", "124854.234000", "124854.250000", "124854.250000", "124854.250000", "124854.250000", "124854.250000", "124854.250000", "124934.203000", "124934.218000", "124934.218000", "124934.218000", "124934.218000", "124934.218000", "124934.218000", "124934.218000", "124934.234000", "124934.234000", "124934.234000", "124934.234000", "124934.234000", "124934.234000", "124934.234000", "124934.250000", "124934.250000", "124934.250000", "124934.250000", "124934.250000", "125014.203000", "125014.218000", "125014.218000", "125014.218000", "125014.218000", "125014.218000", "125014.218000", "125014.218000", "125014.234000", "125014.234000", "125014.234000", "125014.234000", "125014.234000", "125014.234000", "125014.234000", "125014.250000", "125014.250000", "125014.250000", "125014.250000", "125014.250000", "125054.203000", "125054.218000", "125054.218000", "125054.218000", "125054.218000", "125054.218000", "125054.218000", "125054.218000", "125054.234000", "125054.234000", "125054.234000", "125054.234000", "125054.234000", "125054.234000", "125054.234000", "125054.250000", "125054.250000", "125054.250000", "125054.250000", "125054.250000", "125134.203000", "125134.218000", "125134.218000", "125134.218000", "125134.218000", "125134.218000", "125134.218000", "125134.218000", "125134.218000", "125134.234000", "125134.234000", "125134.234000", "125134.234000", "125134.250000", "125134.250000", "125134.250000", "125134.250000", "125134.250000", "125134.250000", "125134.250000", "125214.203000", "125214.218000", "125214.218000", "125214.218000", "125214.218000", "125214.218000", "125214.218000", "125214.218000", "125214.234000", "125214.234000", "125214.234000", "125214.234000", "125214.234000", "125214.250000", "125214.250000", "125214.250000", "125214.250000", "125214.250000", "125214.250000", "125214.250000", "125254.203000", "125254.218000", "125254.218000", "125254.218000", "125254.218000", "125254.218000", "125254.218000", "125254.218000", "125254.234000", "125254.234000", "125254.234000", "125254.234000", "125254.234000", "125254.234000", "125254.234000", "125254.250000", "125254.250000", "125254.250000", "125254.250000", "125254.250000", "125334.203000", "125334.218000", "125334.218000", "125334.218000", "125334.218000", "125334.218000", "125334.218000", "125334.218000", "125334.234000", "125334.234000", "125334.234000", "125334.234000", "125334.234000", "125334.234000", "125334.234000", "125334.250000", "125334.250000", "125334.250000", "125334.250000", "125334.250000", "125414.203000", "125414.218000", "125414.218000", "125414.218000", "125414.218000", "125414.218000", "125414.218000", "125414.218000", "125414.234000", "125414.234000", "125414.234000", "125414.234000", "125414.234000", "125414.234000", "125414.234000", "125414.250000", "125414.250000", "125414.250000", "125414.250000", "125414.250000", "125454.203000", "125454.218000", "125454.218000", "125454.218000", "125454.218000", "125454.218000", "125454.218000", "125454.218000", "125454.234000", "125454.234000", "125454.234000", "125454.234000", "125454.234000", "125454.234000", "125454.234000", "125454.250000", "125454.250000", "125454.250000", "125454.250000", "125454.250000", "125529.906000", "125529.906000", "125529.906000", "125529.906000", "125529.906000", "125529.921000", "125529.921000", "125529.921000", "125529.921000", "125529.921000", "125529.921000", "125529.921000", "125529.937000", "125529.937000", "125529.937000", "125529.937000", "125529.937000", "125529.937000"],
      "InstanceNumber": [1, 2, 3, 4, 5, 6, 7, 8, 9, 10, 11, 12, 13, 14, 15, 16, 17, 18, 19, 20, 21, 22, 23, 24, 25, 26, 27, 28, 29, 30, 31, 32, 33, 34, 35, 36, 37, 38, 39, 40, 41, 42, 43, 44, 45, 46, 47, 48, 49, 50, 51, 52, 53, 54, 55, 56, 57, 58, 59, 60, 61, 62, 63, 64, 65, 66, 67, 68, 69, 70, 71, 72, 73, 74, 75, 76, 77, 78, 79, 80, 81, 82, 83, 84, 85, 86, 87, 88, 89, 90, 91, 92, 93, 94, 95, 96, 97, 98, 99, 100, 101, 102, 103, 104, 105, 106, 107, 108, 109, 110, 111, 112, 113, 114, 115, 116, 117, 118, 119, 120, 121, 122, 123, 124, 125, 126, 127, 128, 129, 130, 131, 132, 133, 134, 135, 136, 137, 138, 139, 140, 141, 142, 143, 144, 145, 146, 147, 148, 149, 150, 151, 152, 153, 154, 155, 156, 157, 158, 159, 160, 161, 162, 163, 164, 165, 166, 167, 168, 169, 170, 171, 172, 173, 174, 175, 176, 177, 178, 179, 180, 181, 182, 183, 184, 185, 186, 187, 188, 189, 190, 191, 192, 193, 194, 195, 196, 197, 198, 199, 200, 201, 202, 203, 204, 205, 206, 207, 208, 209, 210, 211, 212, 213, 214, 215, 216, 217, 218, 219, 220, 221, 222, 223, 224, 225, 226, 227, 228, 229, 230, 231, 232, 233, 234, 235, 236, 237, 238, 239, 240, 241, 242, 243, 244, 245, 246, 247, 248, 249, 250, 251, 252, 253, 254, 255, 256, 257, 258],
      "LargestImagePixelValue": [1784, 1718, 1712, 1704, 1691, 1742, 1686, 1743, 1649, 1636, 1650, 1651, 1669, 1664, 1671, 1638, 1685, 1705, 1708, 1694, 1683, 1686, 1644, 1684, 1728, 1644, 1656, 1694, 1714, 1681, 1712, 1679, 1682, 1685, 1663, 1665, 1692, 1735, 1682, 1702, 1726, 1742, 1661, 1669, 1654, 1678, 1665, 1652, 1711, 1738, 1685, 1663, 1676, 1651, 1664, 1739, 1675, 1670, 1705, 1708, 1678, 1687, 1679, 1666, 1686, 1678, 1681, 1771, 1656, 1667, 1668, 1665, 1652, 1629, 1716, 1652, 1678, 1682, 1651, 1680, 1675, 1645, 1679, 1709, 1667, 1668, 1659, 1661, 1668, 1654, 1658, 1664, 1650, 1645, 1675, 1705, 1694, 1650, 1736, 1787, 1694, 1711, 1693, 1671, 1704, 1685, 1677, 1669, 1668, 1657, 1686, 1667, 1678, 1672, 1665, 1665, 1683, 1698, 1679, 1723, 1731, 1647, 1673, 1673, 1670, 1678, 1744, 1693, 1663, 1692, 1701, 1668, 1669, 1672, 1674, 1740, 1670, 1665, 1642, 1648, 1680, 1692, 1666, 1681, 1644, 1660, 1763, 1738, 1667, 1700, 1666, 1653, 1656, 1686, 1665, 1690, 1660, 1695, 1673, 1672, 1668, 1691, 1688, 1689, 1682, 1711, 1674, 1654, 1702, 1663, 1757, 1682, 1742, 1679, 1669, 1686, 1686, 1672, 1691, 1665, 1659, 1664, 1699, 1669, 1670, 1680, 1697, 1669, 1658, 1670, 1659, 1709, 1672, 1674, 1669, 1687, 1662, 1672, 1685, 1715, 1661, 1658, 1658, 1707, 1672, 1720, 1681, 1699, 1684, 1679, 1656, 1671, 1713, 1675, 1670, 1657, 1709, 1681, 1690, 1703, 1675, 1668, 1663, 1686, 1712, 1671, 1670, 1697, 1657, 1657, 1669, 1711, 1682, 1715, 1694, 1675, 1662, 1673, 1715, 1687, 1702, 1678, 1708, 1672, 1705, 1683, 1691, 1673, 1843, 1734, 1679, 1719, 1676, 1726, 1935, 1837, 1773, 2237],
      "WindowCenter": [759.0, 756.0, 759.0, 757.0, 757.0, 756.0, 757.0, 756.0, 753.0, 751.0, 752.0, 751.0, 751.0, 752.0, 751.0, 751.0, 751.0, 753.0, 755.0, 754.0, 754.0, 752.0, 754.0, 757.0, 756.0, 756.0, 755.0, 755.0, 755.0, 753.0, 756.0, 757.0, 756.0, 755.0, 753.0, 753.0, 754.0, 755.0, 753.0, 754.0, 755.0, 758.0, 754.0, 753.0, 755.0, 754.0, 754.0, 753.0, 755.0, 756.0, 755.0, 754.0, 754.0, 754.0, 754.0, 756.0, 753.0, 757.0, 756.0, 756.0, 755.0, 755.0, 755.0, 754.0, 753.0, 753.0, 754.0, 760.0, 756.0, 758.0, 758.0, 756.0, 758.0, 757.0, 758.0, 755.0, 754.0, 755.0, 754.0, 756.0, 754.0, 755.0, 754.0, 757.0, 757.0, 757.0, 758.0, 758.0, 759.0, 757.0, 759.0, 756.0, 757.0, 756.0, 757.0, 757.0, 756.0, 758.0, 761.0, 760.0, 758.0, 756.0, 757.0, 754.0, 756.0, 756.0, 758.0, 756.0, 755.0, 755.0, 756.0, 756.0, 758.0, 756.0, 757.0, 755.0, 756.0, 757.0, 759.0, 760.0, 759.0, 758.0, 758.0, 757.0, 757.0, 759.0, 761.0, 758.0, 758.0, 757.0, 758.0, 756.0, 755.0, 757.0, 756.0, 760.0, 760.0, 759.0, 756.0, 756.0, 758.0, 757.0, 759.0, 756.0, 756.0, 756.0, 758.0, 758.0, 760.0, 761.0, 758.0, 757.0, 760.0, 760.0, 758.0, 758.0, 760.0, 759.0, 760.0, 760.0, 758.0, 760.0, 759.0, 759.0, 762.0, 762.0, 759.0, 759.0, 759.0, 759.0, 760.0, 760.0, 761.0, 761.0, 761.0, 763.0, 760.0, 762.0, 762.0, 760.0, 760.0, 758.0, 760.0, 757.0, 758.0, 759.0, 760.0, 759.0, 758.0, 758.0, 757.0, 762.0, 759.0, 759.0, 758.0, 758.0, 756.0, 756.0, 756.0, 758.0, 759.0, 759.0, 761.0, 762.0, 761.0, 762.0, 760.0, 759.0, 759.0, 760.0, 760.0, 760.0, 763.0, 762.0, 761.0, 759.0, 763.0, 761.0, 761.0, 760.0, 760.0, 758.0, 758.0, 759.0, 761.0, 761.0, 763.0, 763.0, 761.0, 762.0, 760.0, 763.0, 762.0, 763.0, 763.0, 761.0, 760.0, 760.0, 764.0, 762.0, 761.0, 762.0, 762.0, 759.0, 761.0, 761.0, 762.0, 762.0, 764.0, 765.0, 764.0, 764.0, 763.0, 765.0, 765.0, 757.0, 743.0, 755.0],
      "WindowWidth": [1616.0, 1607.0, 1614.0, 1610.0, 1609.0, 1607.0, 1608.0, 1607.0, 1598.0, 1594.0, 1596.0, 1595.0, 1594.0, 1597.0, 1595.0, 1594.0, 1595.0, 1600.0, 1604.0, 1601.0, 1601.0, 1597.0, 1602.0, 1608.0, 1606.0, 1607.0, 1605.0, 1605.0, 1604.0, 1599.0, 1606.0, 1609.0, 1606.0, 1604.0, 1598.0, 1598.0, 1601.0, 1604.0, 1598.0, 1602.0, 1606.0, 1612.0, 1602.0, 1599.0, 1603.0, 1601.0, 1600.0, 1600.0, 1604.0, 1608.0, 1603.0, 1601.0, 1602.0, 1600.0, 1600.0, 1608.0, 1600.0, 1609.0, 1607.0, 1607.0, 1603.0, 1605.0, 1603.0, 1600.0, 1599.0, 1600.0, 1602.0, 1616.0, 1606.0, 1611.0, 1611.0, 1607.0, 1613.0, 1608.0, 1612.0, 1603.0, 1600.0, 1605.0, 1602.0, 1606.0, 1601.0, 1603.0, 1602.0, 1610.0, 1610.0, 1609.0, 1613.0, 1611.0, 1614.0, 1609.0, 1613.0, 1606.0, 1608.0, 1607.0, 1610.0, 1609.0, 1607.0, 1612.0, 1619.0, 1618.0, 1611.0, 1606.0, 1608.0, 1601.0, 1604.0, 1608.0, 1610.0, 1607.0, 1602.0, 1602.0, 1608.0, 1607.0, 1610.0, 1606.0, 1608.0, 1605.0, 1606.0, 1608.0, 1614.0, 1617.0, 1614.0, 1611.0, 1612.0, 1609.0, 1608.0, 1614.0, 1618.0, 1613.0, 1610.0, 1608.0, 1609.0, 1604.0, 1604.0, 1609.0, 1605.0, 1619.0, 1616.0, 1613.0, 1604.0, 1604.0, 1611.0, 1609.0, 1614.0, 1607.0, 1606.0, 1607.0, 1610.0, 1612.0, 1616.0, 1617.0, 1610.0, 1609.0, 1615.0, 1617.0, 1611.0, 1609.0, 1615.0, 1613.0, 1616.0, 1615.0, 1610.0, 1615.0, 1612.0, 1614.0, 1620.0, 1621.0, 1614.0, 1613.0, 1614.0, 1612.0, 1615.0, 1615.0, 1619.0, 1620.0, 1619.0, 1624.0, 1616.0, 1621.0, 1620.0, 1616.0, 1614.0, 1610.0, 1615.0, 1608.0, 1612.0, 1614.0, 1616.0, 1612.0, 1611.0, 1609.0, 1607.0, 1621.0, 1614.0, 1611.0, 1609.0, 1610.0, 1605.0, 1605.0, 1606.0, 1610.0, 1613.0, 1612.0, 1616.0, 1621.0, 1618.0, 1621.0, 1613.0, 1613.0, 1612.0, 1614.0, 1616.0, 1616.0, 1622.0, 1619.0, 1616.0, 1610.0, 1625.0, 1617.0, 1617.0, 1614.0, 1614.0, 1610.0, 1610.0, 1612.0, 1618.0, 1619.0, 1622.0, 1624.0, 1617.0, 1619.0, 1615.0, 1623.0, 1621.0, 1624.0, 1625.0, 1617.0, 1616.0, 1615.0, 1629.0, 1621.0, 1618.0, 1620.0, 1620.0, 1613.0, 1619.0, 1617.0, 1620.0, 1619.0, 1626.0, 1628.0, 1626.0, 1624.0, 1621.0, 1628.0, 1643.0, 1632.0, 1595.0, 1609.0]
    },
    "slices": {}
  }
}