{
    "AcquisitionMatrixPE": 68, 
    "AcquisitionNumber": 1, 
    "AcquisitionTime": "10:57:11.075000", 
    "BaseResolution": 68, 
    "CoilString": "C:HEA;HEP", 
    "ConversionSoftware": "dcm2niix", 
    "ConversionSoftwareVersion": "v1.0.20190902", 
    "DeviceSerialNumber": "35450", 
    "DwellTime": 2.82e-05, 
    "EchoNumber": 2, 
    "EchoTime": 0.00765, 
    "EchoTime1": 0.00519, 
    "EchoTime2": 0.00765, 
    "FlipAngle": 60, 
    "ImageOrientationPatientDICOM": [
        1, 
        0, 
        0, 
        0, 
        0.988228, 
        -0.152986
    ], 
    "ImageType": [
        "ORIGINAL", 
        "PRIMARY", 
        "P", 
        "ND"
    ], 
    "ImagingFrequency": 123.219, 
    "InPlanePhaseEncodingDirectionDICOM": "COL", 
    "InstitutionAddress": "Univeristy_Ave._197_Newark_North_East_US_07102-1814", 
    "InstitutionName": "RUBIC", 
    "InstitutionalDepartmentName": "Department", 
    "IntendedFor": [
        "func/sub-215_task-cardgame_run-03_bold.nii.gz", 
        "func/sub-215_task-rest_run-01_bold.nii.gz", 
        "func/sub-215_task-cardgame_run-01_bold.nii.gz", 
        "func/sub-215_task-rest_run-04_bold.nii.gz", 
        "func/sub-215_task-cardgame_run-02_bold.nii.gz", 
        "func/sub-215_task-rest_run-03_bold.nii.gz", 
        "func/sub-215_task-rest_run-02_bold.nii.gz"
    ], 
    "MRAcquisitionType": "2D", 
    "MagneticFieldStrength": 3, 
    "Manufacturer": "Siemens", 
    "ManufacturersModelName": "TrioTim", 
    "Modality": "MR", 
    "PartialFourier": 1, 
    "PatientPosition": "HFS", 
    "PercentPhaseFOV": 100, 
    "PhaseEncodingDirection": "j-", 
    "PhaseEncodingSteps": 68, 
    "PhaseResolution": 1, 
    "PixelBandwidth": 261, 
    "ProcedureStepDescription": "Krekelberg_David", 
    "ProtocolName": "gre_field_mapping", 
    "PulseSequenceDetails": "%SiemensSeq%_gre_field_mapping", 
    "ReceiveCoilName": "HeadMatrix", 
    "ReconMatrixPE": 68, 
    "RepetitionTime": 0.402, 
    "SAR": 0.300261, 
    "ScanningSequence": "GR", 
    "SequenceName": "_fm2d2r", 
    "SequenceVariant": "SP", 
    "SeriesDescription": "gre_field_mapping", 
    "SeriesNumber": 5, 
    "ShimSetting": [
        2100, 
        -708, 
        -7917, 
        1414, 
        287, 
        -411, 
        -2150, 
        -14
    ], 
    "SliceThickness": 2.5, 
    "SliceTiming": [
        0.20312, 
        0, 
        0.21094, 
        0.00781, 
        0.21875, 
        0.02344, 
        0.23438, 
        0.03125, 
        0.24219, 
        0.04688, 
        0.25781, 
        0.05469, 
        0.26562, 
        0.07031, 
        0.28125, 
        0.07812, 
        0.28906, 
        0.09375, 
        0.30469, 
        0.10156, 
        0.3125, 
        0.10938, 
        0.32812, 
        0.125, 
        0.33594, 
        0.13281, 
        0.34375, 
        0.14844, 
        0.35938, 
        0.15625, 
        0.36719, 
        0.16406, 
        0.38281, 
        0.17969, 
        0.39062, 
        0.1875
    ], 
    "SoftwareVersions": "syngo_MR_B19", 
    "SpacingBetweenSlices": 3, 
    "StationName": "MRC35450", 
    "TxRefAmp": 432.025, 
    "dcmmeta_affine": [
        [
            -3.0, 
            0.0, 
            0.0, 
            100.6440658569336
        ], 
        [
            0.0, 
            2.9646852016448975, 
            -0.4589576721191406, 
            -66.07403564453125
        ], 
        [
            0.0, 
            0.4589575231075287, 
            2.9646873474121094, 
            -75.84122467041016
        ], 
        [
            0.0, 
            0.0, 
            0.0, 
            1.0
        ]
    ], 
    "dcmmeta_reorient_transform": [
        [
            0.0, 
            -1.0, 
            0.0, 
            67.0
        ], 
        [
            1.0, 
            0.0, 
            0.0, 
            0.0
        ], 
        [
            0.0, 
            0.0, 
            -1.0, 
            35.0
        ], 
        [
            0.0, 
            0.0, 
            0.0, 
            1.0
        ]
    ], 
    "dcmmeta_shape": [
        68, 
        68, 
        36
    ], 
    "dcmmeta_slice_dim": 2, 
    "dcmmeta_version": 0.6, 
    "global": {
        "const": {
            "AcquisitionMatrix": [
                68, 
                0, 
                0, 
                68
            ], 
            "AcquisitionNumber": 1, 
            "AngioFlag": "N", 
            "BitsAllocated": 16, 
            "BitsStored": 12, 
            "Columns": 68, 
            "EchoNumbers": 2, 
            "EchoTime": 7.65, 
            "EchoTrainLength": 1, 
            "FlipAngle": 60.0, 
            "HighBit": 11, 
            "ImageOrientationPatient": [
                1.0, 
                0.0, 
                0.0, 
                0.0, 
                0.9882283809914, 
                -0.1529858392241
            ], 
            "ImageType": [
                "ORIGINAL", 
                "PRIMARY", 
                "P", 
                "ND"
            ], 
            "ImagedNucleus": "1H", 
            "ImagingFrequency": 123.21879, 
            "InPlanePhaseEncodingDirection": "COL", 
            "MRAcquisitionType": "2D", 
            "MagneticFieldStrength": 3.0, 
            "Manufacturer": "SIEMENS", 
            "ManufacturerModelName": "TrioTim", 
            "Modality": "MR", 
            "NumberOfAverages": 1.0, 
            "NumberOfPhaseEncodingSteps": 68, 
            "PercentPhaseFieldOfView": 100.0, 
            "PercentSampling": 100.0, 
            "PerformedProcedureStepStartTime": "103545.531000", 
            "PhotometricInterpretation": "MONOCHROME2", 
            "PixelBandwidth": 261.0, 
            "PixelRepresentation": 0, 
            "PixelSpacing": [
                3.0, 
                3.0
            ], 
            "ProtocolName": "gre_field_mapping", 
            "RepetitionTime": 402.0, 
            "RescaleIntercept": -4096.0, 
            "RescaleSlope": 2.0, 
            "RescaleType": "US", 
            "Rows": 68, 
            "SAR": 0.30026080491474, 
            "SamplesPerPixel": 1, 
            "ScanningSequence": "GR", 
            "SequenceName": "*fm2d2r", 
            "SequenceVariant": "SP", 
            "SeriesDescription": "gre_field_mapping", 
            "SeriesNumber": 5, 
            "SeriesTime": "105811.578000", 
            "SliceThickness": 2.5, 
            "SoftwareVersions": "syngo MR B19", 
            "SpacingBetweenSlices": 3.0, 
            "SpecificCharacterSet": "ISO_IR 100", 
            "StudyID": "1", 
            "StudyTime": "103545.484000", 
            "TransmitCoilName": "Body", 
            "VariableFlipAngleFlag": "N", 
            "WindowCenterWidthExplanation": "Algo1", 
            "dBdt": 0.0
        }, 
        "slices": {
            "AcquisitionTime": [
                "105711.075000", 
                "105710.875000", 
                "105711.087500", 
                "105710.885000", 
                "105711.097500", 
                "105710.897500", 
                "105711.110000", 
                "105710.907500", 
                "105711.120000", 
                "105710.920000", 
                "105711.132500", 
                "105710.930000", 
                "105711.142500", 
                "105710.942500", 
                "105711.155000", 
                "105710.952500", 
                "105711.165000", 
                "105710.965000", 
                "105711.177500", 
                "105710.975000", 
                "105711.187500", 
                "105710.987500", 
                "105711.200000", 
                "105710.997500", 
                "105711.210000", 
                "105711.010000", 
                "105711.222500", 
                "105711.020000", 
                "105711.232500", 
                "105711.030000", 
                "105711.245000", 
                "105711.042500", 
                "105711.255000", 
                "105711.052500", 
                "105711.267500", 
                "105711.065000"
            ], 
            "ContentTime": [
                "105811.640000", 
                "105811.593000", 
                "105811.640000", 
                "105811.593000", 
                "105811.640000", 
                "105811.609000", 
                "105811.640000", 
                "105811.609000", 
                "105811.640000", 
                "105811.609000", 
                "105811.640000", 
                "105811.609000", 
                "105811.640000", 
                "105811.609000", 
                "105811.640000", 
                "105811.609000", 
                "105811.640000", 
                "105811.609000", 
                "105811.656000", 
                "105811.609000", 
                "105811.656000", 
                "105811.609000", 
                "105811.656000", 
                "105811.625000", 
                "105811.656000", 
                "105811.625000", 
                "105811.656000", 
                "105811.625000", 
                "105811.656000", 
                "105811.625000", 
                "105811.656000", 
                "105811.625000", 
                "105811.671000", 
                "105811.625000", 
                "105811.671000", 
                "105811.625000"
            ], 
            "CsaImage.ICE_Dims": [
                "X_2_1_1_1_1_1_19_1_1_1_1_42", 
                "X_2_1_1_1_1_1_1_1_1_2_1_42", 
                "X_2_1_1_1_1_1_20_1_1_3_1_42", 
                "X_2_1_1_1_1_1_2_1_1_4_1_42", 
                "X_2_1_1_1_1_1_21_1_1_5_1_42", 
                "X_2_1_1_1_1_1_3_1_1_6_1_42", 
                "X_2_1_1_1_1_1_22_1_1_7_1_42", 
                "X_2_1_1_1_1_1_4_1_1_8_1_42", 
                "X_2_1_1_1_1_1_23_1_1_9_1_42", 
                "X_2_1_1_1_1_1_5_1_1_10_1_42", 
                "X_2_1_1_1_1_1_24_1_1_11_1_42", 
                "X_2_1_1_1_1_1_6_1_1_12_1_42", 
                "X_2_1_1_1_1_1_25_1_1_13_1_42", 
                "X_2_1_1_1_1_1_7_1_1_14_1_42", 
                "X_2_1_1_1_1_1_26_1_1_15_1_42", 
                "X_2_1_1_1_1_1_8_1_1_16_1_42", 
                "X_2_1_1_1_1_1_27_1_1_17_1_42", 
                "X_2_1_1_1_1_1_9_1_1_18_1_42", 
                "X_2_1_1_1_1_1_28_1_1_19_1_42", 
                "X_2_1_1_1_1_1_10_1_1_20_1_42", 
                "X_2_1_1_1_1_1_29_1_1_21_1_42", 
                "X_2_1_1_1_1_1_11_1_1_22_1_42", 
                "X_2_1_1_1_1_1_30_1_1_23_1_42", 
                "X_2_1_1_1_1_1_12_1_1_24_1_42", 
                "X_2_1_1_1_1_1_31_1_1_25_1_42", 
                "X_2_1_1_1_1_1_13_1_1_26_1_42", 
                "X_2_1_1_1_1_1_32_1_1_27_1_42", 
                "X_2_1_1_1_1_1_14_1_1_28_1_42", 
                "X_2_1_1_1_1_1_33_1_1_29_1_42", 
                "X_2_1_1_1_1_1_15_1_1_30_1_42", 
                "X_2_1_1_1_1_1_34_1_1_31_1_42", 
                "X_2_1_1_1_1_1_16_1_1_32_1_42", 
                "X_2_1_1_1_1_1_35_1_1_33_1_42", 
                "X_2_1_1_1_1_1_17_1_1_34_1_42", 
                "X_2_1_1_1_1_1_36_1_1_35_1_42", 
                "X_2_1_1_1_1_1_18_1_1_36_1_42"
            ], 
            "CsaImage.ProtocolSliceNumber": [
                0, 
                1, 
                2, 
                3, 
                4, 
                5, 
                6, 
                7, 
                8, 
                9, 
                10, 
                11, 
                12, 
                13, 
                14, 
                15, 
                16, 
                17, 
                18, 
                19, 
                20, 
                21, 
                22, 
                23, 
                24, 
                25, 
                26, 
                27, 
                28, 
                29, 
                30, 
                31, 
                32, 
                33, 
                34, 
                35
            ], 
            "CsaImage.SliceMeasurementDuration": [
                54085.0, 
                54082.5, 
                54085.0, 
                54085.0, 
                54085.0, 
                54082.5, 
                54085.0, 
                54085.0, 
                54085.0, 
                54082.5, 
                54085.0, 
                54085.0, 
                54085.0, 
                54082.5, 
                54085.0, 
                54085.0, 
                54085.0, 
                54082.5, 
                54082.5, 
                54085.0, 
                54085.0, 
                54082.5, 
                54082.5, 
                54085.0, 
                54085.0, 
                54082.5, 
                54082.5, 
                54085.0, 
                54085.0, 
                54085.0, 
                54082.5, 
                54085.0, 
                54085.0, 
                54085.0, 
                54082.5, 
                54085.0
            ], 
            "CsaImage.SlicePosition_PCS": [
                [
                    -100.64406776, 
                    -132.55986539, 
                    -45.09099341
                ], 
                [
                    -100.64406776, 
                    -132.10090772, 
                    -42.12630988
                ], 
                [
                    -100.64406776, 
                    -131.64195004, 
                    -39.16162253
                ], 
                [
                    -100.64406776, 
                    -131.18299237, 
                    -36.196939
                ], 
                [
                    -100.64406776, 
                    -130.7240347, 
                    -33.23225165
                ], 
                [
                    -100.64406776, 
                    -130.26507703, 
                    -30.26756812
                ], 
                [
                    -100.64406776, 
                    -129.80612126, 
                    -27.30288458
                ], 
                [
                    -100.64406776, 
                    -129.34716359, 
                    -24.33819724
                ], 
                [
                    -100.64406776, 
                    -128.88820592, 
                    -21.3735137
                ], 
                [
                    -100.64406776, 
                    -128.42924825, 
                    -18.40882636
                ], 
                [
                    -100.64406776, 
                    -127.97029057, 
                    -15.44414282
                ], 
                [
                    -100.64406776, 
                    -127.5113329, 
                    -12.47945738
                ], 
                [
                    -100.64406776, 
                    -127.05237523, 
                    -9.51477194
                ], 
                [
                    -100.64406776, 
                    -126.59341756, 
                    -6.5500865
                ], 
                [
                    -100.64406776, 
                    -126.13445988, 
                    -3.58540106
                ], 
                [
                    -100.64406776, 
                    -125.67550221, 
                    -0.62071753
                ], 
                [
                    -100.64406776, 
                    -125.21654454, 
                    2.34396791
                ], 
                [
                    -100.64406776, 
                    -124.75758687, 
                    5.30865335
                ], 
                [
                    -100.64406776, 
                    -124.2986311, 
                    8.27333879
                ], 
                [
                    -100.64406776, 
                    -123.83967343, 
                    11.23802375
                ], 
                [
                    -100.64406776, 
                    -123.38071576, 
                    14.20270895
                ], 
                [
                    -100.64406776, 
                    -122.92175809, 
                    17.16739404
                ], 
                [
                    -100.64406776, 
                    -122.46280042, 
                    20.13207912
                ], 
                [
                    -100.64406776, 
                    -122.00384274, 
                    23.09676456
                ], 
                [
                    -100.64406776, 
                    -121.54488507, 
                    26.06144952
                ], 
                [
                    -100.64406776, 
                    -121.0859274, 
                    29.02613496
                ], 
                [
                    -100.64406776, 
                    -120.62696973, 
                    31.9908204
                ], 
                [
                    -100.64406776, 
                    -120.16801205, 
                    34.95550584
                ], 
                [
                    -100.64406776, 
                    -119.70905438, 
                    37.92018937
                ], 
                [
                    -100.64406776, 
                    -119.25009862, 
                    40.88487481
                ], 
                [
                    -100.64406776, 
                    -118.79114095, 
                    43.84956025
                ], 
                [
                    -100.64406776, 
                    -118.33218327, 
                    46.81424569
                ], 
                [
                    -100.64406776, 
                    -117.8732256, 
                    49.77892923
                ], 
                [
                    -100.64406776, 
                    -117.41426793, 
                    52.74361657
                ], 
                [
                    -100.64406776, 
                    -116.95531026, 
                    55.70830011
                ], 
                [
                    -100.64406776, 
                    -116.49635259, 
                    58.67298746
                ]
            ], 
            "CsaImage.TimeAfterStart": [
                0.6075, 
                0.405, 
                0.6175, 
                0.4175, 
                0.63, 
                0.4275, 
                0.64, 
                0.4375, 
                0.6525, 
                0.45, 
                0.6625, 
                0.46, 
                0.675, 
                0.4725, 
                0.685, 
                0.4825, 
                0.6975, 
                0.495, 
                0.7075, 
                0.505, 
                0.72, 
                0.5175, 
                0.73, 
                0.5275, 
                0.7425, 
                0.54, 
                0.7525, 
                0.55, 
                0.7625, 
                0.5625, 
                0.775, 
                0.5725, 
                0.785, 
                0.585, 
                0.7975, 
                0.595
            ], 
            "ImagePositionPatient": [
                [
                    -100.64406776428, 
                    -132.55986538725, 
                    -45.09099341037
                ], 
                [
                    -100.64406776428, 
                    -132.10090771513, 
                    -42.126309877655
                ], 
                [
                    -100.64406776428, 
                    -131.64195004301, 
                    -39.161622530243
                ], 
                [
                    -100.64406776428, 
                    -131.18299237089, 
                    -36.196938997528
                ], 
                [
                    -100.64406776428, 
                    -130.72403469877, 
                    -33.232251650116
                ], 
                [
                    -100.64406776428, 
                    -130.26507702665, 
                    -30.267568117401
                ], 
                [
                    -100.64406776428, 
                    -129.80612126188, 
                    -27.302884584687
                ], 
                [
                    -100.64406776428, 
                    -129.34716358976, 
                    -24.338197237275
                ], 
                [
                    -100.64406776428, 
                    -128.88820591764, 
                    -21.37351370456
                ], 
                [
                    -100.64406776428, 
                    -128.42924824552, 
                    -18.408826357148
                ], 
                [
                    -100.64406776428, 
                    -127.9702905734, 
                    -15.444142824433
                ], 
                [
                    -100.64406776428, 
                    -127.51133290128, 
                    -12.479457384369
                ], 
                [
                    -100.64406776428, 
                    -127.05237522916, 
                    -9.5147719443058
                ], 
                [
                    -100.64406776428, 
                    -126.59341755705, 
                    -6.5500865042423
                ], 
                [
                    -100.64406776428, 
                    -126.13445988493, 
                    -3.5854010641788
                ], 
                [
                    -100.64406776428, 
                    -125.67550221281, 
                    -0.620717531464
                ], 
                [
                    -100.64406776428, 
                    -125.21654454069, 
                    2.3439679085995
                ], 
                [
                    -100.64406776428, 
                    -124.75758686857, 
                    5.308653348663
                ], 
                [
                    -100.64406776428, 
                    -124.2986311038, 
                    8.2733387887265
                ], 
                [
                    -100.64406776428, 
                    -123.83967343168, 
                    11.238023751953
                ], 
                [
                    -100.64406776428, 
                    -123.38071575956, 
                    14.202708953598
                ], 
                [
                    -100.64406776428, 
                    -122.92175808744, 
                    17.167394036033
                ], 
                [
                    -100.64406776428, 
                    -122.46280041532, 
                    20.132079118469
                ], 
                [
                    -100.64406776428, 
                    -122.0038427432, 
                    23.096764558532
                ], 
                [
                    -100.64406776428, 
                    -121.54488507108, 
                    26.061449521759
                ], 
                [
                    -100.64406776428, 
                    -121.08592739896, 
                    29.026134961822
                ], 
                [
                    -100.64406776428, 
                    -120.62696972685, 
                    31.990820401886
                ], 
                [
                    -100.64406776428, 
                    -120.16801205473, 
                    34.955505841949
                ], 
                [
                    -100.64406776428, 
                    -119.70905438261, 
                    37.920189374664
                ], 
                [
                    -100.64406776428, 
                    -119.25009861784, 
                    40.884874814727
                ], 
                [
                    -100.64406776428, 
                    -118.79114094572, 
                    43.849560254791
                ], 
                [
                    -100.64406776428, 
                    -118.3321832736, 
                    46.814245694854
                ], 
                [
                    -100.64406776428, 
                    -117.87322560148, 
                    49.778929227569
                ], 
                [
                    -100.64406776428, 
                    -117.41426792936, 
                    52.743616574981
                ], 
                [
                    -100.64406776428, 
                    -116.95531025724, 
                    55.708300107696
                ], 
                [
                    -100.64406776428, 
                    -116.49635258512, 
                    58.672987455108
                ]
            ], 
            "InstanceCreationTime": [
                "105811.640000", 
                "105811.593000", 
                "105811.640000", 
                "105811.593000", 
                "105811.640000", 
                "105811.609000", 
                "105811.640000", 
                "105811.609000", 
                "105811.640000", 
                "105811.609000", 
                "105811.640000", 
                "105811.609000", 
                "105811.640000", 
                "105811.609000", 
                "105811.640000", 
                "105811.609000", 
                "105811.640000", 
                "105811.609000", 
                "105811.656000", 
                "105811.609000", 
                "105811.656000", 
                "105811.609000", 
                "105811.656000", 
                "105811.625000", 
                "105811.656000", 
                "105811.625000", 
                "105811.656000", 
                "105811.625000", 
                "105811.656000", 
                "105811.625000", 
                "105811.656000", 
                "105811.625000", 
                "105811.671000", 
                "105811.625000", 
                "105811.671000", 
                "105811.625000"
            ], 
            "InstanceNumber": [
                1, 
                2, 
                3, 
                4, 
                5, 
                6, 
                7, 
                8, 
                9, 
                10, 
                11, 
                12, 
                13, 
                14, 
                15, 
                16, 
                17, 
                18, 
                19, 
                20, 
                21, 
                22, 
                23, 
                24, 
                25, 
                26, 
                27, 
                28, 
                29, 
                30, 
                31, 
                32, 
                33, 
                34, 
                35, 
                36
            ], 
            "LargestImagePixelValue": [
                4079, 
                4093, 
                4091, 
                4093, 
                4087, 
                4094, 
                4093, 
                4093, 
                4077, 
                4094, 
                4076, 
                4089, 
                4091, 
                4085, 
                4074, 
                4078, 
                4067, 
                4090, 
                4080, 
                4088, 
                4076, 
                4093, 
                4082, 
                4092, 
                4094, 
                4086, 
                4094, 
                4094, 
                4094, 
                4094, 
                4092, 
                4094, 
                4092, 
                4093, 
                4094, 
                4092
            ], 
            "SliceLocation": [
                -64.839981668928, 
                -61.839983236604, 
                -58.839981034488, 
                -55.839982602164, 
                -52.839980400048, 
                -49.839981967723, 
                -46.839983827197, 
                -43.83998162508, 
                -40.839983192756, 
                -37.83998099064, 
                -34.839982558316, 
                -31.839982241096, 
                -28.839981923875, 
                -25.839981606655, 
                -22.839981289435, 
                -19.839982857111, 
                -16.839982539891, 
                -13.83998222267, 
                -10.839982197247, 
                -7.8399823512513, 
                -4.8399822696431, 
                -1.8399823058409, 
                1.1600176579614, 
                4.1600179751816, 
                7.1600178211778, 
                10.160018138398, 
                13.160018455618, 
                16.160018772838, 
                19.160017205163, 
                22.160017230585, 
                25.160017547806, 
                28.160017865026, 
                31.16001629735, 
                34.160018499466, 
                37.16001693179, 
                40.160019133907
            ], 
            "SmallestImagePixelValue": [
                2, 
                1, 
                0, 
                2, 
                0, 
                3, 
                3, 
                5, 
                14, 
                1, 
                0, 
                4, 
                2, 
                17, 
                24, 
                3, 
                7, 
                4, 
                8, 
                2, 
                12, 
                2, 
                3, 
                3, 
                0, 
                2, 
                16, 
                3, 
                5, 
                7, 
                2, 
                0, 
                1, 
                1, 
                0, 
                0
            ], 
            "WindowCenter": [
                -340.0, 
                -320.0, 
                -374.0, 
                -294.0, 
                -300.0, 
                -280.0, 
                -296.0, 
                -246.0, 
                -198.0, 
                -124.0, 
                -130.0, 
                -88.0, 
                -92.0, 
                -188.0, 
                -52.0, 
                -90.0, 
