{
    "AcquisitionMatrixPE": 68, 
    "AcquisitionNumber": 1, 
    "AcquisitionTime": "11:43:41.920000", 
    "BaseResolution": 68, 
    "CoilString": "C:HEA;HEP", 
    "ConversionSoftware": "dcm2niix", 
    "ConversionSoftwareVersion": "v1.0.20190902", 
    "DeviceSerialNumber": "35450", 
    "DwellTime": 2.82e-05, 
    "EchoNumber": 2, 
    "EchoTime": 0.00765, 
    "EchoTime1": 0.00519, 
    "EchoTime2": 0.00765, 
    "FlipAngle": 60, 
    "ImageOrientationPatientDICOM": [
        0.999657, 
        0.00314478, 
        0.0259874, 
        3.2883e-08, 
        0.992757, 
        -0.120137
    ], 
    "ImageType": [
        "ORIGINAL", 
        "PRIMARY", 
        "P", 
        "ND"
    ], 
    "ImagingFrequency": 123.218, 
    "InPlanePhaseEncodingDirectionDICOM": "COL", 
    "InstitutionAddress": "Univeristy_Ave._197_Newark_North_East_US_07102-1814", 
    "InstitutionName": "RUBIC", 
    "InstitutionalDepartmentName": "Department", 
    "IntendedFor": [
        "func/sub-226_task-rest_run-01_bold.nii.gz", 
        "func/sub-226_task-cardgame_run-02_bold.nii.gz", 
        "func/sub-226_task-cardgame_run-01_bold.nii.gz", 
        "func/sub-226_task-rest_run-03_bold.nii.gz", 
        "func/sub-226_task-rest_run-04_bold.nii.gz", 
        "func/sub-226_task-rest_run-02_bold.nii.gz", 
        "func/sub-226_task-cardgame_run-03_bold.nii.gz"
    ], 
    "MRAcquisitionType": "2D", 
    "MagneticFieldStrength": 3, 
    "Manufacturer": "Siemens", 
    "ManufacturersModelName": "TrioTim", 
    "Modality": "MR", 
    "PartialFourier": 1, 
    "PatientPosition": "HFS", 
    "PercentPhaseFOV": 100, 
    "PhaseEncodingDirection": "j-", 
    "PhaseEncodingSteps": 68, 
    "PhaseResolution": 1, 
    "PixelBandwidth": 261, 
    "ProcedureStepDescription": "Krekelberg_David", 
    "ProtocolName": "gre_field_mapping", 
    "PulseSequenceDetails": "%SiemensSeq%_gre_field_mapping", 
    "ReceiveCoilName": "HeadMatrix", 
    "ReconMatrixPE": 68, 
    "RepetitionTime": 0.402, 
    "SAR": 0.29876, 
    "ScanningSequence": "GR", 
    "SequenceName": "_fm2d2r", 
    "SequenceVariant": "SP", 
    "SeriesDescription": "gre_field_mapping", 
    "SeriesNumber": 4, 
    "ShimSetting": [
        1964, 
        -641, 
        -7571, 
        669, 
        57, 
        15, 
        77, 
        -203
    ], 
    "SliceThickness": 2.5, 
    "SliceTiming": [
        0.20312, 
        0, 
        0.21094, 
        0.00781, 
        0.22656, 
        0.02344, 
        0.23438, 
        0.03125, 
        0.25, 
        0.04688, 
        0.25781, 
        0.05469, 
        0.26562, 
        0.07031, 
        0.28125, 
        0.07812, 
        0.28906, 
        0.08594, 
        0.30469, 
        0.10156, 
        0.3125, 
        0.10938, 
        0.32812, 
        0.125, 
        0.33594, 
        0.13281, 
        0.35156, 
        0.14844, 
        0.35938, 
        0.15625, 
        0.375, 
        0.17188, 
        0.38281, 
        0.17969, 
        0.39062, 
        0.1875
    ], 
    "SoftwareVersions": "syngo_MR_B19", 
    "SpacingBetweenSlices": 3, 
    "StationName": "MRC35450", 
    "TxRefAmp": 354.672, 
    "dcmmeta_affine": [
        [
            -2.998971939086914, 
            9.864903205425435e-08, 
            0.07853078842163086, 
            97.87889099121094
        ], 
        [
            -0.009434349834918976, 
            2.978271961212158, 
            -0.3602886199951172, 
            -68.61481475830078
        ], 
        [
            0.07796207815408707, 
            0.36041054129600525, 
            2.977252960205078, 
            -63.93486022949219
        ], 
        [
            0.0, 
            0.0, 
            0.0, 
            1.0
        ]
    ], 
    "dcmmeta_reorient_transform": [
        [
            0.0, 
            -1.0, 
            0.0, 
            67.0
        ], 
        [
            1.0, 
            0.0, 
            0.0, 
            0.0
        ], 
        [
            0.0, 
            0.0, 
            -1.0, 
            35.0
        ], 
        [
            0.0, 
            0.0, 
            0.0, 
            1.0
        ]
    ], 
    "dcmmeta_shape": [
        68, 
        68, 
        36
    ], 
    "dcmmeta_slice_dim": 2, 
    "dcmmeta_version": 0.6, 
    "global": {
        "const": {
            "AcquisitionMatrix": [
                68, 
                0, 
                0, 
                68
            ], 
            "AcquisitionNumber": 1, 
            "AngioFlag": "N", 
            "BitsAllocated": 16, 
            "BitsStored": 12, 
            "Columns": 68, 
            "EchoNumbers": 2, 
            "EchoTime": 7.65, 
            "EchoTrainLength": 1, 
            "FlipAngle": 60.0, 
            "HighBit": 11, 
            "ImageOrientationPatient": [
                0.99965732500203, 
                0.00314478323318, 
                0.02598736054692, 
                3.2883011e-08, 
                0.99275734115154, 
                -0.1201368452629
            ], 
            "ImageType": [
                "ORIGINAL", 
                "PRIMARY", 
                "P", 
                "ND"
            ], 
            "ImagedNucleus": "1H", 
            "ImagingFrequency": 123.218454, 
            "InPlanePhaseEncodingDirection": "COL", 
            "MRAcquisitionType": "2D", 
            "MagneticFieldStrength": 3.0, 
            "Manufacturer": "SIEMENS", 
            "ManufacturerModelName": "TrioTim", 
            "Modality": "MR", 
            "NumberOfAverages": 1.0, 
            "NumberOfPhaseEncodingSteps": 68, 
            "PercentPhaseFieldOfView": 100.0, 
            "PercentSampling": 100.0, 
            "PerformedProcedureStepStartTime": "113054.359000", 
            "PhotometricInterpretation": "MONOCHROME2", 
            "PixelBandwidth": 261.0, 
            "PixelRepresentation": 0, 
            "PixelSpacing": [
                3.0, 
                3.0
            ], 
            "ProtocolName": "gre_field_mapping", 
            "RepetitionTime": 402.0, 
            "RescaleIntercept": -4096.0, 
            "RescaleSlope": 2.0, 
            "RescaleType": "US", 
            "Rows": 68, 
            "SAR": 0.29876026762473, 
            "SamplesPerPixel": 1, 
            "ScanningSequence": "GR", 
            "SequenceName": "*fm2d2r", 
            "SequenceVariant": "SP", 
            "SeriesDescription": "gre_field_mapping", 
            "SeriesNumber": 4, 
            "SeriesTime": "114443.640000", 
            "SliceThickness": 2.5, 
            "SoftwareVersions": "syngo MR B19", 
            "SpacingBetweenSlices": 3.0, 
            "SpecificCharacterSet": "ISO_IR 100", 
            "StudyID": "1", 
            "StudyTime": "113054.312000", 
            "TransmitCoilName": "Body", 
            "VariableFlipAngleFlag": "N", 
            "WindowCenterWidthExplanation": "Algo1", 
            "dBdt": 0.0
        }, 
        "slices": {
            "AcquisitionTime": [
                "114341.920000", 
                "114341.720000", 
                "114341.932500", 
                "114341.730000", 
                "114341.942500", 
                "114341.742500", 
                "114341.955000", 
                "114341.752500", 
                "114341.965000", 
                "114341.765000", 
                "114341.977500", 
                "114341.775000", 
                "114341.987500", 
                "114341.787500", 
                "114342.000000", 
                "114341.797500", 
                "114342.010000", 
                "114341.807500", 
                "114342.022500", 
                "114341.820000", 
                "114342.032500", 
                "114341.830000", 
                "114342.045000", 
                "114341.842500", 
                "114342.055000", 
                "114341.852500", 
                "114342.067500", 
                "114341.865000", 
                "114342.077500", 
                "114341.875000", 
                "114342.090000", 
                "114341.887500", 
                "114342.100000", 
                "114341.897500", 
                "114342.110000", 
                "114341.910000"
            ], 
            "ContentTime": [
                "114443.671000", 
                "114443.640000", 
                "114443.687000", 
                "114443.640000", 
                "114443.687000", 
                "114443.656000", 
                "114443.687000", 
                "114443.656000", 
                "114443.687000", 
                "114443.656000", 
                "114443.687000", 
                "114443.656000", 
                "114443.687000", 
                "114443.656000", 
                "114443.687000", 
                "114443.656000", 
                "114443.687000", 
                "114443.656000", 
                "114443.687000", 
                "114443.656000", 
                "114443.703000", 
                "114443.656000", 
                "114443.703000", 
                "114443.671000", 
                "114443.703000", 
                "114443.671000", 
                "114443.703000", 
                "114443.671000", 
                "114443.703000", 
                "114443.671000", 
                "114443.703000", 
                "114443.671000", 
                "114443.703000", 
                "114443.671000", 
                "114443.703000", 
                "114443.671000"
            ], 
            "CsaImage.ICE_Dims": [
                "X_2_1_1_1_1_1_19_1_1_1_1_50", 
                "X_2_1_1_1_1_1_1_1_1_2_1_50", 
                "X_2_1_1_1_1_1_20_1_1_3_1_50", 
                "X_2_1_1_1_1_1_2_1_1_4_1_50", 
                "X_2_1_1_1_1_1_21_1_1_5_1_50", 
                "X_2_1_1_1_1_1_3_1_1_6_1_50", 
                "X_2_1_1_1_1_1_22_1_1_7_1_50", 
                "X_2_1_1_1_1_1_4_1_1_8_1_50", 
                "X_2_1_1_1_1_1_23_1_1_9_1_50", 
                "X_2_1_1_1_1_1_5_1_1_10_1_50", 
                "X_2_1_1_1_1_1_24_1_1_11_1_50", 
                "X_2_1_1_1_1_1_6_1_1_12_1_50", 
                "X_2_1_1_1_1_1_25_1_1_13_1_50", 
                "X_2_1_1_1_1_1_7_1_1_14_1_50", 
                "X_2_1_1_1_1_1_26_1_1_15_1_50", 
                "X_2_1_1_1_1_1_8_1_1_16_1_50", 
                "X_2_1_1_1_1_1_27_1_1_17_1_50", 
                "X_2_1_1_1_1_1_9_1_1_18_1_50", 
                "X_2_1_1_1_1_1_28_1_1_19_1_50", 
                "X_2_1_1_1_1_1_10_1_1_20_1_50", 
                "X_2_1_1_1_1_1_29_1_1_21_1_50", 
                "X_2_1_1_1_1_1_11_1_1_22_1_50", 
                "X_2_1_1_1_1_1_30_1_1_23_1_50", 
                "X_2_1_1_1_1_1_12_1_1_24_1_50", 
                "X_2_1_1_1_1_1_31_1_1_25_1_50", 
                "X_2_1_1_1_1_1_13_1_1_26_1_50", 
                "X_2_1_1_1_1_1_32_1_1_27_1_50", 
                "X_2_1_1_1_1_1_14_1_1_28_1_50", 
                "X_2_1_1_1_1_1_33_1_1_29_1_50", 
                "X_2_1_1_1_1_1_15_1_1_30_1_50", 
                "X_2_1_1_1_1_1_34_1_1_31_1_50", 
                "X_2_1_1_1_1_1_16_1_1_32_1_50", 
                "X_2_1_1_1_1_1_35_1_1_33_1_50", 
                "X_2_1_1_1_1_1_17_1_1_34_1_50", 
                "X_2_1_1_1_1_1_36_1_1_35_1_50", 
                "X_2_1_1_1_1_1_18_1_1_36_1_50"
            ], 
            "CsaImage.ProtocolSliceNumber": [
                0, 
                1, 
                2, 
                3, 
                4, 
                5, 
                6, 
                7, 
                8, 
                9, 
                10, 
                11, 
                12, 
                13, 
                14, 
                15, 
                16, 
                17, 
                18, 
                19, 
                20, 
                21, 
                22, 
                23, 
                24, 
                25, 
                26, 
                27, 
                28, 
                29, 
                30, 
                31, 
                32, 
                33, 
                34, 
                35
            ], 
            "CsaImage.SliceMeasurementDuration": [
                54085.0, 
                54082.5, 
                54085.0, 
                54085.0, 
                54085.0, 
                54082.5, 
                54082.5, 
                54085.0, 
                54085.0, 
                54082.5, 
                54082.5, 
                54085.0, 
                54085.0, 
                54082.5, 
                54082.5, 
                54085.0, 
                54085.0, 
                54085.0, 
                54082.5, 
                54085.0, 
                54085.0, 
                54085.0, 
                54082.5, 
                54085.0, 
                54085.0, 
                54085.0, 
                54082.5, 
                54085.0, 
                54085.0, 
                54085.0, 
                54082.5, 
                54085.0, 
                54085.0, 
                54085.0, 
                54085.0, 
                54085.0
            ], 
            "CsaImage.SlicePosition_PCS": [
                [
                    -97.87889604, 
                    -130.92935632, 
                    -39.78730127
                ], 
                [
                    -97.95742731, 
                    -130.5690696, 
                    -36.81005212
                ], 
                [
                    -98.03595786, 
                    -130.20878289, 
                    -33.83279916
                ], 
                [
                    -98.11448889, 
                    -129.84849427, 
                    -30.85555001
                ], 
                [
                    -98.19301967, 
                    -129.48820756, 
                    -27.87829705
                ], 
                [
                    -98.27155046, 
                    -129.12792085, 
                    -24.90104409
                ], 
                [
                    -98.35008125, 
                    -128.76763413, 
                    -21.92379495
                ], 
                [
                    -98.42861204, 
                    -128.40734742, 
                    -18.94654199
                ], 
                [
                    -98.50714307, 
                    -128.04706071, 
                    -15.96929093
                ], 
                [
                    -98.58567385, 
                    -127.686774, 
                    -12.99203988
                ], 
                [
                    -98.66420464, 
                    -127.32648538, 
                    -10.01478883
                ], 
                [
                    -98.74273543, 
                    -126.96619866, 
                    -7.03753587
                ], 
                [
                    -98.82126646, 
                    -126.60591195, 
                    -4.06028577
                ], 
                [
                    -98.89979725, 
                    -126.24562524, 
                    -1.08303376
                ], 
                [
                    -98.97832803, 
                    -125.88533853, 
                    1.89421777
                ], 
                [
                    -99.05685882, 
                    -125.52505181, 
                    4.87146882
                ], 
                [
                    -99.13538985, 
                    -125.16476319, 
                    7.84872047
                ], 
                [
                    -99.21392064, 
                    -124.80447648, 
                    10.82597188
                ], 
                [
                    -99.29245143, 
                    -124.44418977, 
                    13.80322341
                ], 
                [
                    -99.37098222, 
                    -124.08390306, 
                    16.78047494
                ], 
                [
                    -99.44951324, 
                    -123.72361634, 
                    19.75772647
                ], 
                [
                    -99.52804403, 
                    -123.36332963, 
                    22.73497752
                ], 
                [
                    -99.60657482, 
                    -123.00304292, 
                    25.71222953
                ], 
                [
                    -99.68510561, 
                    -122.6427543, 
                    28.68948058
                ], 
                [
                    -99.76363663, 
                    -122.28246758, 
                    31.66673163
                ], 
                [
                    -99.84216742, 
                    -121.92218087, 
                    34.64398269
                ], 
                [
                    -99.92069821, 
                    -121.56189416, 
                    37.62123565
                ], 
                [
                    -99.999229, 
                    -121.20160745, 
                    40.5984867
                ], 
                [
                    -100.07775991, 
                    -120.84132073, 
                    43.57573966
                ], 
                [
                    -100.1562907, 
                    -120.48103211, 
                    46.5529888
                ], 
                [
                    -100.2348216, 
                    -120.1207454, 
                    49.53024176
                ], 
                [
                    -100.31335239, 
                    -119.76045869, 
                    52.50749091
                ], 
                [
                    -100.3918833, 
                    -119.40017198, 
                    55.48474387
                ], 
                [
                    -100.47041409, 
                    -119.03988526, 
                    58.46199683
                ], 
                [
                    -100.548945, 
                    -118.67959855, 
                    61.43924598
                ], 
                [
                    -100.62747578, 
                    -118.31930993, 
                    64.41649894
                ]
            ], 
            "CsaImage.TimeAfterStart": [
                0.6075, 
                0.405, 
                0.6175, 
                0.415, 
                0.63, 
                0.4275, 
                0.64, 
                0.4375, 
                0.6525, 
                0.45, 
                0.6625, 
                0.46, 
                0.675, 
                0.4725, 
                0.685, 
                0.4825, 
                0.695, 
                0.495, 
                0.7075, 
                0.505, 
                0.7175, 
                0.5175, 
                0.73, 
                0.5275, 
                0.74, 
                0.54, 
                0.7525, 
                0.55, 
                0.7625, 
                0.5625, 
                0.775, 
                0.5725, 
                0.785, 
                0.585, 
                0.7975, 
                0.595
            ], 
            "ImagePositionPatient": [
                [
                    -97.878896043367, 
                    -130.92935631737, 
                    -39.787301265025
                ], 
                [
                    -97.957427308626, 
                    -130.56906960472, 
                    -36.810052119517
                ], 
                [
                    -98.035957858629, 
                    -130.20878289208, 
                    -33.832799159312
                ], 
                [
                    -98.114488885469, 
                    -129.84849427208, 
                    -30.855550013804
                ], 
                [
                    -98.193019673891, 
                    -129.48820755943, 
                    -27.878297053599
                ], 
                [
                    -98.271550462313, 
                    -129.12792084679, 
                    -24.901044093394
                ], 
                [
                    -98.350081250734, 
                    -128.76763413414, 
                    -21.923794947886
                ], 
                [
                    -98.428612039156, 
                    -128.40734742149, 
                    -18.946541987681
                ], 
                [
                    -98.507143065996, 
                    -128.04706070885, 
                    -15.969290934824
                ], 
                [
                    -98.585673854418, 
                    -127.6867739962, 
                    -12.992039881968
                ], 
                [
                    -98.664204642839, 
                    -127.32648537621, 
                    -10.014788829111
                ], 
                [
                    -98.742735431261, 
                    -126.96619866356, 
                    -7.0375358689064
                ], 
                [
                    -98.821266458101, 
                    -126.60591195091, 
                    -4.0602857697242
                ], 
                [
                    -98.899797246523, 
                    -126.24562523827, 
                    -1.0830337631935
                ], 
                [
                    -98.978328034944, 
                    -125.88533852562, 
                    1.8942177665001
                ], 
                [
                    -99.056858823366, 
                    -125.52505181297, 
                    4.8714688193566
                ], 
                [
                    -99.135389850206, 
                    -125.16476319298, 
                    7.8487204682595
                ], 
                [
                    -99.213920638628, 
                    -124.80447648033, 
                    10.825971878744
                ], 
                [
                    -99.292451427049, 
                    -124.44418976769, 
                    13.803223408437
                ], 
                [
                    -99.370982215471, 
                    -124.08390305504, 
                    16.780474938131
                ], 
                [
                    -99.449513242311, 
                    -123.72361634239, 
                    19.757726467825
                ], 
                [
                    -99.528044030733, 
                    -123.36332962975, 
                    22.734977520681
                ], 
                [
                    -99.606574819155, 
                    -123.0030429171, 
                    25.712229527212
                ], 
                [
                    -99.685105607576, 
                    -122.64275429711, 
                    28.689480580068
                ], 
                [
                    -99.763636634416, 
                    -122.28246758446, 
                    31.666731632925
                ], 
                [
                    -99.842167422838, 
                    -121.92218087181, 
                    34.643982685781
                ], 
                [
                    -99.92069821126, 
                    -121.56189415917, 
                    37.621235645986
                ], 
                [
                    -99.999228999681, 
                    -121.20160744652, 
                    40.598486698843
                ], 
                [
                    -100.07775990731, 
                    -120.84132073387, 
                    43.575739659048
                ], 
                [
                    -100.15629069573, 
                    -120.48103211388, 
                    46.552988804556
                ], 
                [
                    -100.23482160336, 
                    -120.12074540123, 
                    49.530241764761
                ], 
                [
                    -100.31335239179, 
                    -119.76045868858, 
                    52.507490910268
                ], 
                [
                    -100.39188329942, 
                    -119.40017197594, 
                    55.484743870474
                ], 
                [
                    -100.47041408784, 
                    -119.03988526329, 
                    58.461996830679
                ], 
                [
                    -100.54894499547, 
                    -118.67959855065, 
                    61.439245976186
                ], 
                [
                    -100.62747578389, 
                    -118.31930993065, 
                    64.416498936391
                ]
            ], 
            "InstanceCreationTime": [
                "114443.671000", 
                "114443.640000", 
                "114443.687000", 
                "114443.640000", 
                "114443.687000", 
                "114443.656000", 
                "114443.687000", 
                "114443.656000", 
                "114443.687000", 
                "114443.656000", 
                "114443.687000", 
                "114443.656000", 
                "114443.687000", 
                "114443.656000", 
                "114443.687000", 
                "114443.656000", 
                "114443.687000", 
                "114443.656000", 
                "114443.687000", 
                "114443.656000", 
                "114443.703000", 
                "114443.656000", 
                "114443.703000", 
                "114443.671000", 
                "114443.703000", 
                "114443.671000", 
                "114443.703000", 
                "114443.671000", 
                "114443.703000", 
                "114443.671000", 
                "114443.703000", 
                "114443.671000", 
                "114443.703000", 
                "114443.671000", 
                "114443.703000", 
                "114443.671000"
            ], 
            "InstanceNumber": [
                1, 
                2, 
                3, 
                4, 
                5, 
                6, 
                7, 
                8, 
                9, 
                10, 
                11, 
                12, 
                13, 
                14, 
                15, 
                16, 
                17, 
                18, 
                19, 
                20, 
                21, 
                22, 
                23, 
                24, 
                25, 
                26, 
                27, 
                28, 
                29, 
                30, 
                31, 
                32, 
                33, 
                34, 
                35, 
                36
            ], 
            "LargestImagePixelValue": [
                4093, 
                4087, 
                4094, 
                4091, 
                4093, 
                4081, 
                4090, 
                4093, 
                4083, 
                4093, 
                4079, 
                4089, 
                4094, 
                4089, 
                4094, 
                4086, 
                4075, 
                4079, 
                4089, 
                4087, 
                4094, 
                4089, 
                4090, 
                4092, 
                4094, 
                4094, 
                4093, 
                4090, 
                4088, 
                4093, 
                4093, 
                4094, 
                4094, 
                4094, 
                4094, 
                4094
            ], 
            "SliceLocation": [
                -52.647479188402, 
                -49.647481496843, 
                -46.647480038236, 
                -43.647482123854, 
                -40.647480659006, 
                -37.647479194158, 
                -34.647481515081, 
                -31.647480050233, 
                -28.64748047203, 
                -25.647480900067, 
                -22.647481099041, 
                -19.647479634193, 
                -16.647481002432, 
                -13.647480484027, 
                -10.647480438843, 
                -7.6474808668808, 
                -4.6474804680863, 
                -1.6474805412079, 
                1.3525195039759, 
                4.3525195491596, 
                7.3525196005844, 
                10.352519172547, 
                13.352519690952, 
                16.352519491979, 
                19.352519070182, 
                22.352518642144, 
                25.352520106992, 
                28.352519678955, 
                31.352521146923, 
                34.352519055064, 
                37.352520523033, 
                40.35251820211, 
                43.352519670078, 
                46.352521134926, 
                49.352518817123, 
                52.352520511036
            ], 
            "SmallestImagePixelValue": [
                1, 
                2, 
                0, 
                2, 
                6, 
                3, 
                0, 
                14, 
                1, 
                3, 
                2, 
                1, 
                8, 
                3, 
                5, 
                3, 
                3, 
                0, 
                3, 
                0, 
                10, 
                4, 
                2, 
                5, 
                1, 
                1, 
                2, 
                1, 
                1, 
                0, 
                2, 
                1, 
                1, 
                1, 
                2, 
                0
            ], 
            "WindowCenter": [
                -128.0, 
                -240.0, 
                -178.0, 
                -220.0, 
                -202.0, 
                -272.0, 
                -228.0, 
                -238.0, 
                -206.0, 
                -200.0, 
                -168.0, 
