{
  "aor": 0.006385397489539748,
  "aqi": 0.019577504686192466,
  "bids_meta": {
    "AcquisitionMatrixPE": 68,
    "AcquisitionNumber": 1,
    "AcquisitionTime": "16:29:56.785000",
    "BandwidthPerPixelPhaseEncode": 31.289,
    "BaseResolution": 68,
    "CogAtlasID": "TODO",
    "CoilString": "C:HEA;HEP",
    "ConversionSoftware": "dcm2niix",
    "ConversionSoftwareVersion": "v1.0.20190902",
    "DerivedVendorReportedEchoSpacing": 0.000470002,
    "DeviceSerialNumber": "35450",
    "DwellTime": 3e-06,
    "EchoTime": 0.023,
    "EffectiveEchoSpacing": 0.000470002,
    "FlipAngle": 76,
    "ImageOrientationPatientDICOM": [
      1,
      0,
      0,
      0,
      0.999391,
      -0.0348995
    ],
    "ImageType": [
      "ORIGINAL",
      "PRIMARY",
      "M",
      "ND",
      "MOSAIC"
    ],
    "ImagingFrequency": 123.219,
    "InPlanePhaseEncodingDirectionDICOM": "COL",
    "InstitutionAddress": "Univeristy_Ave._197_Newark_North_East_US_07102-1814",
    "InstitutionName": "RUBIC",
    "InstitutionalDepartmentName": "Department",
    "MRAcquisitionType": "2D",
    "MagneticFieldStrength": 3,
    "Manufacturer": "Siemens",
    "ManufacturersModelName": "TrioTim",
    "Modality": "MR",
    "PartialFourier": 1,
    "PatientPosition": "HFS",
    "PercentPhaseFOV": 100,
    "PhaseEncodingDirection": "j-",
    "PhaseEncodingSteps": 68,
    "PhaseResolution": 1,
    "PixelBandwidth": 2451,
    "ProcedureStepDescription": "Krekelberg_David",
    "ProtocolName": "ep2d_bold_RestEPI_4",
    "PulseSequenceDetails": "%SiemensSeq%_ep2d_bold",
    "ReceiveCoilName": "HeadMatrix",
    "ReconMatrixPE": 68,
    "RepetitionTime": 2,
    "SAR": 0.213935,
    "ScanOptions": "FS",
    "ScanningSequence": "EP",
    "SequenceName": "_epfid2d1_68",
    "SequenceVariant": "SK",
    "SeriesDescription": "ep2d_bold_RestEPI_4",
    "SeriesNumber": 11,
    "ShimSetting": [
      1920,
      -692,
      -7654,
      544,
      104,
      -21,
      -246,
      7
    ],
    "SliceThickness": 2.5,
    "SliceTiming": [
      1.9525,
      1.895,
      1.84,
      1.785,
      1.73,
      1.6725,
      1.6175,
      1.5625,
      1.505,
      1.45,
      1.395,
      1.3375,
      1.2825,
      1.2275,
      1.17,
      1.115,
      1.06,
      1.005,
      0.9475,
      0.8925,
      0.8375,
      0.78,
      0.725,
      0.67,
      0.6125,
      0.5575,
      0.5025,
      0.445,
      0.39,
      0.335,
      0.28,
      0.2225,
      0.1675,
      0.1125,
      0.055,
      0
    ],
    "SoftwareVersions": "syngo_MR_B19",
    "SpacingBetweenSlices": 3,
    "StationName": "MRC35450",
    "TaskName": "rest",
    "TotalReadoutTime": 0.0314901,
    "TxRefAmp": 372.731,
    "dataset": "<unset>",
    "dcmmeta_affine": [
      [
        -3.0,
        0.0,
        0.0,
        102.0
      ],
      [
        0.0,
        2.9981725215911865,
        -0.10469849407672882,
        -75.41255187988281
      ],
      [
        0.0,
        0.10469849407672882,
        2.9981725215911865,
        -34.90612030029297
      ],
      [
        0.0,
        0.0,
        0.0,
        1.0
      ]
    ],
    "dcmmeta_reorient_transform": [
      [
        0.0,
        -1.0,
        0.0,
        67.0
      ],
      [
        1.0,
        0.0,
        0.0,
        0.0
      ],
      [
        0.0,
        0.0,
        1.0,
        0.0
      ],
      [
        0.0,
        0.0,
        0.0,
        1.0
      ]
    ],
    "dcmmeta_shape": [
      68,
      68,
      36,
      240
    ],
    "dcmmeta_slice_dim": 2,
    "dcmmeta_version": 0.6,
    "global": {
      "const": {
        "AcquisitionMatrix": [
          68,
          0,
          0,
          68
        ],
        "AngioFlag": "N",
        "BitsAllocated": 16,
        "BitsStored": 12,
        "Columns": 408,
        "EchoNumbers": 1,
        "EchoTime": 23.0,
        "EchoTrainLength": 1,
        "FlipAngle": 76.0,
        "HighBit": 11,
        "ImageOrientationPatient": [
          1.0,
          0.0,
          0.0,
          0.0,
          0.99939082696012,
          -0.0348994983914
        ],
        "ImagePositionPatient": [
          -612.0,
          -635.15432576329,
          -10.092575862644
        ],
        "ImageType": [
          "ORIGINAL",
          "PRIMARY",
          "M",
          "ND",
          "MOSAIC"
        ],
        "ImagedNucleus": "1H",
        "ImagingFrequency": 123.218609,
        "InPlanePhaseEncodingDirection": "COL",
        "MRAcquisitionType": "2D",
        "MagneticFieldStrength": 3.0,
        "Manufacturer": "SIEMENS",
        "ManufacturerModelName": "TrioTim",
        "Modality": "MR",
        "NumberOfAverages": 1.0,
        "NumberOfPhaseEncodingSteps": 68,
        "PercentPhaseFieldOfView": 100.0,
        "PercentSampling": 100.0,
        "PerformedProcedureStepStartTime": "152922.984000",
        "PhotometricInterpretation": "MONOCHROME2",
        "PixelBandwidth": 2451.0,
        "PixelRepresentation": 0,
        "PixelSpacing": [
          3.0,
          3.0
        ],
        "ProtocolName": "ep2d_bold_RestEPI_4",
        "RepetitionTime": 2000.0,
        "Rows": 408,
        "SAR": 0.21393486843173,
        "SamplesPerPixel": 1,
        "ScanOptions": "FS",
        "ScanningSequence": "EP",
        "SequenceName": "*epfid2d1_68",
        "SequenceVariant": "SK",
        "SeriesDescription": "ep2d_bold_RestEPI_4",
        "SeriesNumber": 11,
        "SeriesTime": "163037.578000",
        "SliceLocation": -32.252995107785,
        "SliceThickness": 2.5,
        "SmallestImagePixelValue": 0,
        "SoftwareVersions": "syngo MR B19",
        "SpacingBetweenSlices": 3.0000000615615,
        "SpecificCharacterSet": "ISO_IR 100",
        "StudyID": "1",
        "StudyTime": "152922.937000",
        "TransmitCoilName": "Body",
        "VariableFlipAngleFlag": "N",
        "WindowCenterWidthExplanation": "Algo1",
        "dBdt": 0.0
      },
      "slices": {}
    },
    "modality": "bold",
    "run_id": 4,
    "subject_id": "209",
    "task_id": "rest",
    "time": {
      "samples": {
        "AcquisitionNumber": [
          1,
          2,
          3,
          4,
          5,
          6,
          7,
          8,
          9,
          10,
          11,
          12,
          13,
          14,
          15,
          16,
          17,
          18,
          19,
          20,
          21,
          22,
          23,
          24,
          25,
          26,
          27,
          28,
          29,
          30,
          31,
          32,
          33,
          34,
          35,
          36,
          37,
          38,
          39,
          40,
          41,
          42,
          43,
          44,
          45,
          46,
          47,
          48,
          49,
          50,
          51,
          52,
          53,
          54,
          55,
          56,
          57,
          58,
          59,
          60,
          61,
          62,
          63,
          64,
          65,
          66,
          67,
          68,
          69,
          70,
          71,
          72,
          73,
          74,
          75,
          76,
          77,
          78,
          79,
          80,
          81,
          82,
          83,
          84,
          85,
          86,
          87,
          88,
          89,
          90,
          91,
          92,
          93,
          94,
          95,
          96,
          97,
          98,
          99,
          100,
          101,
          102,
          103,
          104,
          105,
          106,
          107,
          108,
          109,
          110,
          111,
          112,
          113,
          114,
          115,
          116,
          117,
          118,
          119,
          120,
          121,
          122,
          123,
          124,
          125,
          126,
          127,
          128,
          129,
          130,
          131,
          132,
          133,
          134,
          135,
          136,
          137,
          138,
          139,
          140,
          141,
          142,
          143,
          144,
          145,
          146,
          147,
          148,
          149,
          150,
          151,
          152,
          153,
          154,
          155,
          156,
          157,
          158,
          159,
          160,
          161,
          162,
          163,
          164,
          165,
          166,
          167,
          168,
          169,
          170,
          171,
          172,
          173,
          174,
          175,
          176,
          177,
          178,
          179,
          180,
          181,
          182,
          183,
          184,
          185,
          186,
          187,
          188,
          189,
          190,
          191,
          192,
          193,
          194,
          195,
          196,
          197,
          198,
          199,
          200,
          201,
          202,
          203,
          204,
          205,
          206,
          207,
          208,
          209,
          210,
          211,
          212,
          213,
          214,
          215,
          216,
          217,
          218,
          219,
          220,
          221,
          222,
          223,
          224,
          225,
          226,
          227,
          228,
          229,
          230,
          231,
          232,
          233,
          234,
          235,
          236,
          237,
          238,
          239,
          240
        ],
        "AcquisitionTime": [
          "162956.785000",
          "162958.792500",
          "163000.800000",
          "163002.807500",
          "163004.817500",
          "163006.825000",
          "163008.832500",
          "163010.840000",
          "163012.847500",
          "163014.857500",
          "163016.865000",
          "163018.872500",
          "163020.880000",
          "163022.890000",
          "163024.897500",
          "163026.905000",
          "163028.912500",
          "163030.920000",
          "163032.930000",
          "163034.937500",
          "163036.945000",
          "163038.952500",
          "163040.960000",
          "163042.970000",
          "163044.977500",
          "163046.985000",
          "163048.992500",
          "163051.000000",
          "163053.010000",
          "163055.017500",
          "163057.025000",
          "163059.032500",
          "163101.042500",
          "163103.050000",
          "163105.057500",
          "163107.065000",
          "163109.072500",
          "163111.082500",
          "163113.090000",
          "163115.097500",
          "163117.105000",
          "163119.112500",
          "163121.122500",
          "163123.130000",
          "163125.137500",
          "163127.145000",
          "163129.155000",
          "163131.162500",
          "163133.170000",
          "163135.177500",
          "163137.185000",
          "163139.195000",
          "163141.202500",
          "163143.210000",
          "163145.217500",
          "163147.225000",
          "163149.235000",
          "163151.242500",
          "163153.250000",
          "163155.257500",
          "163157.267500",
          "163159.275000",
          "163201.282500",
          "163203.290000",
          "163205.297500",
          "163207.307500",
          "163209.315000",
          "163211.322500",
          "163213.330000",
          "163215.337500",
          "163217.347500",
          "163219.355000",
          "163221.362500",
          "163223.370000",
          "163225.377500",
          "163227.387500",
          "163229.395000",
          "163231.402500",
          "163233.410000",
          "163235.420000",
          "163237.427500",
          "163239.435000",
          "163241.442500",
          "163243.450000",
          "163245.460000",
          "163247.467500",
          "163249.475000",
          "163251.482500",
          "163253.490000",
          "163255.500000",
          "163257.507500",
          "163259.515000",
          "163301.522500",
          "163303.532500",
          "163305.540000",
          "163307.547500",
          "163309.555000",
          "163311.562500",
          "163313.572500",
          "163315.580000",
          "163317.587500",
          "163319.595000",
          "163321.602500",
          "163323.612500",
          "163325.620000",
          "163327.627500",
          "163329.635000",
          "163331.645000",
          "163333.652500",
          "163335.660000",
          "163337.667500",
          "163339.675000",
          "163341.685000",
          "163343.692500",
          "163345.700000",
          "163347.707500",
          "163349.715000",
          "163351.725000",
          "163353.732500",
          "163355.740000",
          "163357.747500",
          "163359.755000",
          "163401.765000",
          "163403.772500",
          "163405.780000",
          "163407.787500",
          "163409.797500",
          "163411.805000",
          "163413.812500",
          "163415.820000",
          "163417.827500",
          "163419.837500",
          "163421.845000",
          "163423.852500",
          "163425.860000",
          "163427.867500",
          "163429.877500",
          "163431.885000",
          "163433.892500",
          "163435.900000",
          "163437.910000",
          "163439.917500",
          "163441.925000",
          "163443.932500",
          "163445.940000",
          "163447.950000",
          "163449.957500",
          "163451.965000",
          "163453.972500",
          "163455.980000",
          "163457.990000",
          "163459.997500",
          "163502.005000",
          "163504.012500",
          "163506.022500",
          "163508.030000",
          "163510.037500",
          "163512.045000",
          "163514.052500",
          "163516.062500",
          "163518.070000",
          "163520.077500",
          "163522.085000",
          "163524.092500",
          "163526.102500",
          "163528.110000",
          "163530.117500",
          "163532.125000",
          "163534.132500",
          "163536.142500",
          "163538.150000",
          "163540.157500",
          "163542.165000",
          "163544.175000",
          "163546.182500",
          "163548.190000",
          "163550.197500",
          "163552.205000",
          "163554.215000",
          "163556.222500",
          "163558.230000",
          "163600.237500",
          "163602.245000",
          "163604.255000",
          "163606.262500",
          "163608.270000",
          "163610.277500",
          "163612.287500",
          "163614.295000",
          "163616.302500",
          "163618.310000",
          "163620.317500",
          "163622.327500",
          "163624.335000",
          "163626.342500",
          "163628.350000",
          "163630.357500",
          "163632.367500",
          "163634.375000",
          "163636.382500",
          "163638.390000",
          "163640.400000",
          "163642.407500",
          "163644.415000",
          "163646.422500",
          "163648.430000",
          "163650.440000",
          "163652.447500",
          "163654.455000",
          "163656.462500",
          "163658.470000",
          "163700.480000",
          "163702.487500",
          "163704.495000",
          "163706.502500",
          "163708.512500",
          "163710.520000",
          "163712.527500",
          "163714.535000",
          "163716.542500",
          "163718.552500",
          "163720.560000",
          "163722.567500",
          "163724.575000",
          "163726.582500",
          "163728.592500",
          "163730.600000",
          "163732.607500",
          "163734.615000",
          "163736.622500",
          "163738.632500",
          "163740.640000",
          "163742.647500",
          "163744.655000",
          "163746.665000",
          "163748.672500",
          "163750.680000",
          "163752.687500",
          "163754.695000",
          "163756.705000"
        ],
        "ContentTime": [
          "163037.593000",
          "163037.593000",
          "163037.593000",
          "163037.593000",
          "163037.593000",
          "163037.593000",
          "163037.609000",
          "163037.609000",
          "163037.609000",
          "163037.609000",
          "163037.609000",
          "163037.609000",
          "163037.625000",
          "163037.625000",
          "163037.625000",
          "163037.625000",
          "163037.625000",
          "163037.625000",
          "163037.625000",
          "163037.640000",
          "163037.640000",
          "163117.578000",
          "163117.578000",
          "163117.593000",
          "163117.593000",
          "163117.593000",
          "163117.593000",
          "163117.593000",
          "163117.593000",
          "163117.593000",
          "163117.609000",
          "163117.609000",
          "163117.609000",
          "163117.609000",
          "163117.609000",
          "163117.609000",
          "163117.609000",
          "163117.609000",
          "163117.625000",
          "163117.625000",
          "163117.625000",
          "163157.578000",
          "163157.578000",
          "163157.593000",
          "163157.593000",
          "163157.593000",
          "163157.593000",
          "163157.593000",
          "163157.593000",
          "163157.593000",
          "163157.609000",
          "163157.609000",
          "163157.609000",
          "163157.609000",
          "163157.609000",
          "163157.609000",
          "163157.609000",
          "163157.625000",
          "163157.625000",
          "163157.625000",
          "163157.625000",
          "163217.578000",
          "163217.578000",
          "163217.593000",
          "163217.593000",
          "163217.593000",
          "163217.593000",
          "163217.593000",
          "163217.593000",
          "163217.593000",
          "163217.609000",
          "163257.578000",
          "163257.578000",
          "163257.593000",
          "163257.593000",
          "163257.593000",
          "163257.593000",
          "163257.593000",
          "163257.593000",
          "163257.593000",
          "163257.609000",
          "163257.609000",
          "163257.609000",
          "163257.609000",
          "163257.609000",
          "163257.609000",
          "163257.625000",
          "163257.625000",
          "163257.625000",
          "163257.625000",
          "163257.625000",
          "163337.578000",
          "163337.578000",
          "163337.593000",
          "163337.593000",
          "163337.593000",
          "163337.593000",
          "163337.593000",
          "163337.593000",
          "163337.593000",
          "163337.609000",
          "163337.609000",
          "163337.609000",
          "163337.609000",
          "163337.609000",
          "163337.609000",
          "163337.609000",
          "163337.609000",
          "163337.625000",
          "163337.625000",
          "163337.625000",
          "163417.578000",
          "163417.578000",
          "163417.593000",
          "163417.593000",
          "163417.593000",
          "163417.593000",
          "163417.593000",
          "163417.593000",
          "163417.593000",
          "163417.609000",
          "163417.609000",
          "163417.609000",
          "163417.609000",
          "163417.609000",
          "163417.609000",
          "163417.609000",
          "163417.609000",
          "163417.625000",
          "163417.625000",
          "163417.625000",
          "163457.578000",
          "163457.578000",
          "163457.593000",
          "163457.593000",
          "163457.593000",
          "163457.593000",
          "163457.593000",
          "163457.609000",
          "163457.609000",
          "163457.609000",
          "163457.609000",
          "163457.609000",
          "163457.609000",
          "163457.609000",
          "163457.609000",
          "163457.625000",
          "163457.625000",
          "163457.625000",
          "163457.625000",
          "163457.625000",
          "163537.578000",
          "163537.578000",
          "163537.593000",
          "163537.593000",
          "163537.593000",
          "163537.593000",
          "163537.593000",
          "163537.593000",
          "163537.593000",
          "163537.609000",
          "163537.609000",
          "163537.609000",
          "163537.609000",
          "163537.609000",
          "163537.609000",
          "163537.609000",
          "163537.609000",
          "163537.625000",
          "163537.625000",
          "163537.625000",
          "163617.578000",
          "163617.578000",
          "163617.593000",
          "163617.593000",
          "163617.593000",
          "163617.593000",
          "163617.593000",
          "163617.593000",
          "163617.593000",
          "163617.609000",
          "163617.609000",
          "163617.609000",
          "163617.609000",
          "163617.609000",
          "163617.609000",
          "163617.609000",
          "163617.609000",
          "163617.625000",
          "163617.625000",
          "163617.625000",
          "163657.578000",
          "163657.578000",
          "163657.593000",
          "163657.593000",
          "163657.593000",
          "163657.593000",
          "163657.593000",
          "163657.593000",
          "163657.593000",
          "163657.609000",
          "163657.609000",
          "163657.609000",
          "163657.609000",
          "163657.609000",
          "163657.609000",
          "163657.609000",
          "163657.609000",
          "163657.625000",
          "163657.625000",
          "163657.625000",
          "163737.578000",
          "163737.578000",
          "163737.593000",
          "163737.593000",
          "163737.593000",
          "163737.593000",
          "163737.593000",
          "163737.593000",
          "163737.593000",
          "163737.609000",
          "163737.609000",
          "163737.609000",
          "163737.609000",
          "163737.609000",
          "163737.609000",
          "163737.609000",
          "163737.625000",
          "163737.625000",
          "163737.625000",
          "163737.625000",
          "163755.296000",
          "163755.296000",
          "163755.312000",
          "163755.312000",
          "163755.312000",
          "163755.312000",
          "163755.312000",
          "163755.312000",
          "163755.312000"
        ],
        "InstanceCreationTime": [
          "163037.593000",
          "163037.593000",
          "163037.593000",
          "163037.593000",
          "163037.593000",
          "163037.593000",
          "163037.609000",
          "163037.609000",
          "163037.609000",
          "163037.609000",
          "163037.609000",
          "163037.609000",
          "163037.625000",
          "163037.625000",
          "163037.625000",
          "163037.625000",
          "163037.625000",
          "163037.625000",
          "163037.625000",
          "163037.640000",
          "163037.640000",
          "163117.578000",
          "163117.578000",
          "163117.593000",
          "163117.593000",
          "163117.593000",
          "163117.593000",
          "163117.593000",
          "163117.593000",
          "163117.593000",
          "163117.609000",
          "163117.609000",
          "163117.609000",
          "163117.609000",
          "163117.609000",
          "163117.609000",
          "163117.609000",
          "163117.609000",
          "163117.625000",
          "163117.625000",
          "163117.625000",
          "163157.578000",
          "163157.578000",
          "163157.593000",
          "163157.593000",
          "163157.593000",
          "163157.593000",
          "163157.593000",
          "163157.593000",
          "163157.593000",
          "163157.609000",
          "163157.609000",
          "163157.609000",
          "163157.609000",
          "163157.609000",
          "163157.609000",
          "163157.609000",
          "163157.625000",
          "163157.625000",
          "163157.625000",
          "163157.625000",
          "163217.578000",
          "163217.578000",
          "163217.593000",
          "163217.593000",
          "163217.593000",
          "163217.593000",
          "163217.593000",
          "163217.593000",
          "163217.593000",
          "163217.609000",
          "163257.578000",
          "163257.578000",
          "163257.593000",
          "163257.593000",
          "163257.593000",
          "163257.593000",
          "163257.593000",
          "163257.593000",
          "163257.593000",
          "163257.609000",
          "163257.609000",
          "163257.609000",
          "163257.609000",
          "163257.609000",
          "163257.609000",
          "163257.625000",
          "163257.625000",
          "163257.625000",
          "163257.625000",
          "163257.625000",
          "163337.578000",
          "163337.578000",
          "163337.593000",
          "163337.593000",
          "163337.593000",
          "163337.593000",
          "163337.593000",
          "163337.593000",
          "163337.593000",
          "163337.609000",
          "163337.609000",
          "163337.609000",
          "163337.609000",
          "163337.609000",
          "163337.609000",
          "163337.609000",
          "163337.609000",
          "163337.625000",
          "163337.625000",
          "163337.625000",
          "163417.578000",
          "163417.578000",
          "163417.593000",
          "163417.593000",
          "163417.593000",
          "163417.593000",
          "163417.593000",
          "163417.593000",
          "163417.593000",
          "163417.609000",
          "163417.609000",
          "163417.609000",
          "163417.609000",
          "163417.609000",
          "163417.609000",
          "163417.609000",
          "163417.609000",
          "163417.625000",
          "163417.625000",
          "163417.625000",
          "163457.578000",
          "163457.578000",
          "163457.593000",
          "163457.593000",
          "163457.593000",
          "163457.593000",
          "163457.593000",
          "163457.609000",
          "163457.609000",
          "163457.609000",
          "163457.609000",
          "163457.609000",
          "163457.609000",
          "163457.609000",
          "163457.609000",
          "163457.625000",
          "163457.625000",
          "163457.625000",
          "163457.625000",
          "163457.625000",
          "163537.578000",
          "163537.578000",
          "163537.593000",
          "163537.593000",
          "163537.593000",
          "163537.593000",
          "163537.593000",
          "163537.593000",
          "163537.593000",
          "163537.609000",
          "163537.609000",
          "163537.609000",
          "163537.609000",
          "163537.609000",
          "163537.609000",
          "163537.609000",
          "163537.609000",
          "163537.625000",
          "163537.625000",
          "163537.625000",
          "163617.578000",
          "163617.578000",
          "163617.593000",
          "163617.593000",
          "163617.593000",
          "163617.593000",
          "163617.593000",
          "163617.593000",
          "163617.593000",
          "163617.609000",
          "163617.609000",
          "163617.609000",
          "163617.609000",
          "163617.609000",
          "163617.609000",
          "163617.609000",
          "163617.609000",
          "163617.625000",
          "163617.625000",
          "163617.625000",
          "163657.578000",
          "163657.578000",
          "163657.593000",
          "163657.593000",
          "163657.593000",
          "163657.593000",
          "163657.593000",
          "163657.593000",
          "163657.593000",
          "163657.609000",
          "163657.609000",
          "163657.609000",
          "163657.609000",
          "163657.609000",
          "163657.609000",
          "163657.609000",
          "163657.609000",
          "163657.625000",
          "163657.625000",
          "163657.625000",
          "163737.578000",
          "163737.578000",
          "163737.593000",
          "163737.593000",
          "163737.593000",
          "163737.593000",
          "163737.593000",
          "163737.593000",
          "163737.593000",
          "163737.609000",
          "163737.609000",
          "163737.609000",
          "163737.609000",
          "163737.609000",
          "163737.609000",
          "163737.609000",
          "163737.625000",
          "163737.625000",
          "163737.625000",
          "163737.625000",
          "163755.296000",
          "163755.296000",
          "163755.312000",
          "163755.312000",
          "163755.312000",
          "163755.312000",
          "163755.312000",
          "163755.312000",
          "163755.312000"
        ],
        "InstanceNumber": [
          1,
          2,
          3,
          4,
          5,
          6,
          7,
          8,
          9,
          10,
          11,
          12,
          13,
          14,
          15,
          16,
          17,
          18,
          19,
          20,
          21,
          22,
          23,
          24,
          25,
          26,
          27,
          28,
          29,
          30,
          31,
          32,
          33,
          34,
          35,
          36,
          37,
          38,
          39,
          40,
          41,
          42,
          43,
          44,
          45,
          46,
          47,
          48,
          49,
          50,
          51,
          52,
          53,
          54,
          55,
          56,
          57,
          58,
          59,
