{
  "aor": 0.007238833333333334,
  "aqi": 0.021033190249999997,
  "bids_meta": {
    "AcquisitionMatrixPE": 68,
    "AcquisitionNumber": 1,
    "AcquisitionTime": "15:52:18.210000",
    "BandwidthPerPixelPhaseEncode": 31.289,
    "BaseResolution": 68,
    "CogAtlasID": "TODO",
    "CoilString": "C:HEA;HEP",
    "ConversionSoftware": "dcm2niix",
    "ConversionSoftwareVersion": "v1.0.20190902",
    "DerivedVendorReportedEchoSpacing": 0.000470002,
    "DeviceSerialNumber": "35450",
    "DwellTime": 3e-06,
    "EchoTime": 0.023,
    "EffectiveEchoSpacing": 0.000470002,
    "FlipAngle": 76,
    "ImageOrientationPatientDICOM": [
      1,
      0,
      0,
      0,
      0.999391,
      -0.0348995
    ],
    "ImageType": [
      "ORIGINAL",
      "PRIMARY",
      "M",
      "ND",
      "MOSAIC"
    ],
    "ImagingFrequency": 123.219,
    "InPlanePhaseEncodingDirectionDICOM": "COL",
    "InstitutionAddress": "Univeristy_Ave._197_Newark_North_East_US_07102-1814",
    "InstitutionName": "RUBIC",
    "InstitutionalDepartmentName": "Department",
    "MRAcquisitionType": "2D",
    "MagneticFieldStrength": 3,
    "Manufacturer": "Siemens",
    "ManufacturersModelName": "TrioTim",
    "Modality": "MR",
    "PartialFourier": 1,
    "PatientPosition": "HFS",
    "PercentPhaseFOV": 100,
    "PhaseEncodingDirection": "j-",
    "PhaseEncodingSteps": 68,
    "PhaseResolution": 1,
    "PixelBandwidth": 2451,
    "ProcedureStepDescription": "Krekelberg_David",
    "ProtocolName": "ep2d_bold_RestEPI_1",
    "PulseSequenceDetails": "%SiemensSeq%_ep2d_bold",
    "ReceiveCoilName": "HeadMatrix",
    "ReconMatrixPE": 68,
    "RepetitionTime": 2,
    "SAR": 0.213935,
    "ScanOptions": "FS",
    "ScanningSequence": "EP",
    "SequenceName": "_epfid2d1_68",
    "SequenceVariant": "SK",
    "SeriesDescription": "ep2d_bold_RestEPI_1",
    "SeriesNumber": 7,
    "ShimSetting": [
      1920,
      -692,
      -7654,
      544,
      104,
      -21,
      -246,
      7
    ],
    "SliceThickness": 2.5,
    "SliceTiming": [
      1.9525,
      1.895,
      1.84,
      1.785,
      1.73,
      1.6725,
      1.6175,
      1.5625,
      1.505,
      1.45,
      1.395,
      1.3375,
      1.2825,
      1.2275,
      1.17,
      1.115,
      1.06,
      1.005,
      0.9475,
      0.8925,
      0.8375,
      0.78,
      0.725,
      0.67,
      0.6125,
      0.5575,
      0.5025,
      0.4475,
      0.39,
      0.335,
      0.28,
      0.2225,
      0.1675,
      0.1125,
      0.055,
      0
    ],
    "SoftwareVersions": "syngo_MR_B19",
    "SpacingBetweenSlices": 3,
    "StationName": "MRC35450",
    "TaskName": "rest",
    "TotalReadoutTime": 0.0314901,
    "TxRefAmp": 372.731,
    "dataset": "<unset>",
    "dcmmeta_affine": [
      [
        -3.0,
        0.0,
        0.0,
        102.0
      ],
      [
        0.0,
        2.9981725215911865,
        -0.10469849407672882,
        -75.41255187988281
      ],
      [
        0.0,
        0.10469849407672882,
        2.9981725215911865,
        -34.90612030029297
      ],
      [
        0.0,
        0.0,
        0.0,
        1.0
      ]
    ],
    "dcmmeta_reorient_transform": [
      [
        0.0,
        -1.0,
        0.0,
        67.0
      ],
      [
        1.0,
        0.0,
        0.0,
        0.0
      ],
      [
        0.0,
        0.0,
        1.0,
        0.0
      ],
      [
        0.0,
        0.0,
        0.0,
        1.0
      ]
    ],
    "dcmmeta_shape": [
      68,
      68,
      36,
      240
    ],
    "dcmmeta_slice_dim": 2,
    "dcmmeta_version": 0.6,
    "global": {
      "const": {
        "AcquisitionMatrix": [
          68,
          0,
          0,
          68
        ],
        "AngioFlag": "N",
        "BitsAllocated": 16,
        "BitsStored": 12,
        "Columns": 408,
        "EchoNumbers": 1,
        "EchoTime": 23.0,
        "EchoTrainLength": 1,
        "FlipAngle": 76.0,
        "HighBit": 11,
        "ImageOrientationPatient": [
          1.0,
          0.0,
          0.0,
          0.0,
          0.99939082696012,
          -0.0348994983914
        ],
        "ImagePositionPatient": [
          -612.0,
          -635.15432576329,
          -10.092575862644
        ],
        "ImageType": [
          "ORIGINAL",
          "PRIMARY",
          "M",
          "ND",
          "MOSAIC"
        ],
        "ImagedNucleus": "1H",
        "ImagingFrequency": 123.218539,
        "InPlanePhaseEncodingDirection": "COL",
        "MRAcquisitionType": "2D",
        "MagneticFieldStrength": 3.0,
        "Manufacturer": "SIEMENS",
        "ManufacturerModelName": "TrioTim",
        "Modality": "MR",
        "NumberOfAverages": 1.0,
        "NumberOfPhaseEncodingSteps": 68,
        "PercentPhaseFieldOfView": 100.0,
        "PercentSampling": 100.0,
        "PerformedProcedureStepStartTime": "152922.984000",
        "PhotometricInterpretation": "MONOCHROME2",
        "PixelBandwidth": 2451.0,
        "PixelRepresentation": 0,
        "PixelSpacing": [
          3.0,
          3.0
        ],
        "ProtocolName": "ep2d_bold_RestEPI_1",
        "RepetitionTime": 2000.0,
        "Rows": 408,
        "SAR": 0.21393486843173,
        "SamplesPerPixel": 1,
        "ScanOptions": "FS",
        "ScanningSequence": "EP",
        "SequenceName": "*epfid2d1_68",
        "SequenceVariant": "SK",
        "SeriesDescription": "ep2d_bold_RestEPI_1",
        "SeriesNumber": 7,
        "SeriesTime": "155231.625000",
        "SliceLocation": -32.252995107785,
        "SliceThickness": 2.5,
        "SmallestImagePixelValue": 0,
        "SoftwareVersions": "syngo MR B19",
        "SpacingBetweenSlices": 3.0000000615615,
        "SpecificCharacterSet": "ISO_IR 100",
        "StudyID": "1",
        "StudyTime": "152922.937000",
        "TransmitCoilName": "Body",
        "VariableFlipAngleFlag": "N",
        "WindowCenterWidthExplanation": "Algo1",
        "dBdt": 0.0
      },
      "slices": {}
    },
    "modality": "bold",
    "run_id": 1,
    "subject_id": "209",
    "task_id": "rest",
    "time": {
      "samples": {
        "AcquisitionNumber": [
          1,
          2,
          3,
          4,
          5,
          6,
          7,
          8,
          9,
          10,
          11,
          12,
          13,
          14,
          15,
          16,
          17,
          18,
          19,
          20,
          21,
          22,
          23,
          24,
          25,
          26,
          27,
          28,
          29,
          30,
          31,
          32,
          33,
          34,
          35,
          36,
          37,
          38,
          39,
          40,
          41,
          42,
          43,
          44,
          45,
          46,
          47,
          48,
          49,
          50,
          51,
          52,
          53,
          54,
          55,
          56,
          57,
          58,
          59,
          60,
          61,
          62,
          63,
          64,
          65,
          66,
          67,
          68,
          69,
          70,
          71,
          72,
          73,
          74,
          75,
          76,
          77,
          78,
          79,
          80,
          81,
          82,
          83,
          84,
          85,
          86,
          87,
          88,
          89,
          90,
          91,
          92,
          93,
          94,
          95,
          96,
          97,
          98,
          99,
          100,
          101,
          102,
          103,
          104,
          105,
          106,
          107,
          108,
          109,
          110,
          111,
          112,
          113,
          114,
          115,
          116,
          117,
          118,
          119,
          120,
          121,
          122,
          123,
          124,
          125,
          126,
          127,
          128,
          129,
          130,
          131,
          132,
          133,
          134,
          135,
          136,
          137,
          138,
          139,
          140,
          141,
          142,
          143,
          144,
          145,
          146,
          147,
          148,
          149,
          150,
          151,
          152,
          153,
          154,
          155,
          156,
          157,
          158,
          159,
          160,
          161,
          162,
          163,
          164,
          165,
          166,
          167,
          168,
          169,
          170,
          171,
          172,
          173,
          174,
          175,
          176,
          177,
          178,
          179,
          180,
          181,
          182,
          183,
          184,
          185,
          186,
          187,
          188,
          189,
          190,
          191,
          192,
          193,
          194,
          195,
          196,
          197,
          198,
          199,
          200,
          201,
          202,
          203,
          204,
          205,
          206,
          207,
          208,
          209,
          210,
          211,
          212,
          213,
          214,
          215,
          216,
          217,
          218,
          219,
          220,
          221,
          222,
          223,
          224,
          225,
          226,
          227,
          228,
          229,
          230,
          231,
          232,
          233,
          234,
          235,
          236,
          237,
          238,
          239,
          240
        ],
        "AcquisitionTime": [
          "155218.210000",
          "155220.217500",
          "155222.225000",
          "155224.232500",
          "155226.242500",
          "155228.250000",
          "155230.257500",
          "155232.265000",
          "155234.272500",
          "155236.282500",
          "155238.290000",
          "155240.297500",
          "155242.305000",
          "155244.315000",
          "155246.322500",
          "155248.330000",
          "155250.337500",
          "155252.345000",
          "155254.355000",
          "155256.362500",
          "155258.370000",
          "155300.377500",
          "155302.385000",
          "155304.395000",
          "155306.402500",
          "155308.410000",
          "155310.417500",
          "155312.427500",
          "155314.435000",
          "155316.442500",
          "155318.450000",
          "155320.457500",
          "155322.467500",
          "155324.475000",
          "155326.482500",
          "155328.490000",
          "155330.497500",
          "155332.507500",
          "155334.515000",
          "155336.522500",
          "155338.530000",
          "155340.537500",
          "155342.547500",
          "155344.555000",
          "155346.562500",
          "155348.570000",
          "155350.580000",
          "155352.587500",
          "155354.595000",
          "155356.602500",
          "155358.610000",
          "155400.620000",
          "155402.627500",
          "155404.635000",
          "155406.642500",
          "155408.650000",
          "155410.660000",
          "155412.667500",
          "155414.675000",
          "155416.682500",
          "155418.692500",
          "155420.700000",
          "155422.707500",
          "155424.715000",
          "155426.722500",
          "155428.732500",
          "155430.740000",
          "155432.747500",
          "155434.755000",
          "155436.762500",
          "155438.772500",
          "155440.780000",
          "155442.787500",
          "155444.795000",
          "155446.805000",
          "155448.812500",
          "155450.820000",
          "155452.827500",
          "155454.835000",
          "155456.845000",
          "155458.852500",
          "155500.860000",
          "155502.867500",
          "155504.875000",
          "155506.885000",
          "155508.892500",
          "155510.900000",
          "155512.907500",
          "155514.915000",
          "155516.925000",
          "155518.932500",
          "155520.940000",
          "155522.947500",
          "155524.957500",
          "155526.965000",
          "155528.972500",
          "155530.980000",
          "155532.987500",
          "155534.997500",
          "155537.005000",
          "155539.012500",
          "155541.020000",
          "155543.027500",
          "155545.037500",
          "155547.045000",
          "155549.052500",
          "155551.060000",
          "155553.070000",
          "155555.077500",
          "155557.085000",
          "155559.092500",
          "155601.100000",
          "155603.110000",
          "155605.117500",
          "155607.125000",
          "155609.132500",
          "155611.140000",
          "155613.150000",
          "155615.157500",
          "155617.165000",
          "155619.172500",
          "155621.182500",
          "155623.190000",
          "155625.197500",
          "155627.205000",
          "155629.212500",
          "155631.222500",
          "155633.230000",
          "155635.237500",
          "155637.245000",
          "155639.252500",
          "155641.262500",
          "155643.270000",
          "155645.277500",
          "155647.285000",
          "155649.295000",
          "155651.302500",
          "155653.310000",
          "155655.317500",
          "155657.325000",
          "155659.335000",
          "155701.342500",
          "155703.350000",
          "155705.357500",
          "155707.365000",
          "155709.375000",
          "155711.382500",
          "155713.390000",
          "155715.397500",
          "155717.405000",
          "155719.415000",
          "155721.422500",
          "155723.430000",
          "155725.437500",
          "155727.447500",
          "155729.455000",
          "155731.462500",
          "155733.470000",
          "155735.477500",
          "155737.487500",
          "155739.495000",
          "155741.502500",
          "155743.510000",
          "155745.517500",
          "155747.527500",
          "155749.535000",
          "155751.542500",
          "155753.550000",
          "155755.560000",
          "155757.567500",
          "155759.575000",
          "155801.582500",
          "155803.590000",
          "155805.600000",
          "155807.607500",
          "155809.615000",
          "155811.622500",
          "155813.630000",
          "155815.640000",
          "155817.647500",
          "155819.655000",
          "155821.662500",
          "155823.672500",
          "155825.680000",
          "155827.687500",
          "155829.695000",
          "155831.702500",
          "155833.712500",
          "155835.720000",
          "155837.727500",
          "155839.735000",
          "155841.742500",
          "155843.752500",
          "155845.760000",
          "155847.767500",
          "155849.775000",
          "155851.782500",
          "155853.792500",
          "155855.800000",
          "155857.807500",
          "155859.815000",
          "155901.825000",
          "155903.832500",
          "155905.840000",
          "155907.847500",
          "155909.855000",
          "155911.865000",
          "155913.872500",
          "155915.880000",
          "155917.887500",
          "155919.895000",
          "155921.905000",
          "155923.912500",
          "155925.920000",
          "155927.927500",
          "155929.937500",
          "155931.945000",
          "155933.952500",
          "155935.960000",
          "155937.967500",
          "155939.977500",
          "155941.985000",
          "155943.992500",
          "155946.000000",
          "155948.007500",
          "155950.017500",
          "155952.025000",
          "155954.032500",
          "155956.040000",
          "155958.050000",
          "160000.057500",
          "160002.065000",
          "160004.072500",
          "160006.080000",
          "160008.090000",
          "160010.097500",
          "160012.105000",
          "160014.112500",
          "160016.120000",
          "160018.130000"
        ],
        "ContentTime": [
          "155231.640000",
          "155231.640000",
          "155231.640000",
          "155231.640000",
          "155231.640000",
          "155231.640000",
          "155231.656000",
          "155311.625000",
          "155311.625000",
          "155311.640000",
          "155311.640000",
          "155311.640000",
          "155311.640000",
          "155311.640000",
          "155311.640000",
          "155311.640000",
          "155311.656000",
          "155311.656000",
          "155311.656000",
          "155311.656000",
          "155311.656000",
          "155311.656000",
          "155311.671000",
          "155311.671000",
          "155311.671000",
          "155311.671000",
          "155311.671000",
          "155351.625000",
          "155351.625000",
          "155351.640000",
          "155351.640000",
          "155351.640000",
          "155351.640000",
          "155351.640000",
          "155351.656000",
          "155351.656000",
          "155351.656000",
          "155351.656000",
          "155351.656000",
          "155351.656000",
          "155351.671000",
          "155351.671000",
          "155351.671000",
          "155351.671000",
          "155351.671000",
          "155351.671000",
          "155351.671000",
          "155431.625000",
          "155431.625000",
          "155431.640000",
          "155431.640000",
          "155431.640000",
          "155431.640000",
          "155431.640000",
          "155431.640000",
          "155431.640000",
          "155431.656000",
          "155431.656000",
          "155431.656000",
          "155431.656000",
          "155431.656000",
          "155431.656000",
          "155431.656000",
          "155431.671000",
          "155431.671000",
          "155431.671000",
          "155431.671000",
          "155511.625000",
          "155511.625000",
          "155511.640000",
          "155511.640000",
          "155511.640000",
          "155511.640000",
          "155511.640000",
          "155511.640000",
          "155511.640000",
          "155511.656000",
          "155511.656000",
          "155511.656000",
          "155511.656000",
          "155511.656000",
          "155511.656000",
          "155511.656000",
          "155511.656000",
          "155511.671000",
          "155511.671000",
          "155511.671000",
          "155551.625000",
          "155551.625000",
          "155551.640000",
          "155551.640000",
          "155551.640000",
          "155551.640000",
          "155551.640000",
          "155551.640000",
          "155551.640000",
          "155551.656000",
          "155551.656000",
          "155551.656000",
          "155551.656000",
          "155551.656000",
          "155551.656000",
          "155551.656000",
          "155551.656000",
          "155551.671000",
          "155551.671000",
          "155551.671000",
          "155631.625000",
          "155631.625000",
          "155631.640000",
          "155631.640000",
          "155631.640000",
          "155631.640000",
          "155631.640000",
          "155631.640000",
          "155631.640000",
          "155631.656000",
          "155631.656000",
          "155631.656000",
          "155631.656000",
          "155631.656000",
          "155631.656000",
          "155631.656000",
          "155631.671000",
          "155631.671000",
          "155631.671000",
          "155631.671000",
          "155711.625000",
          "155711.625000",
          "155711.640000",
          "155711.640000",
          "155711.640000",
          "155711.640000",
          "155711.640000",
          "155711.640000",
          "155711.640000",
          "155711.656000",
          "155711.656000",
          "155711.656000",
          "155711.656000",
          "155711.656000",
          "155711.656000",
          "155711.656000",
          "155711.656000",
          "155711.671000",
          "155711.671000",
          "155711.671000",
          "155751.625000",
          "155751.640000",
          "155751.640000",
          "155751.640000",
          "155751.640000",
          "155751.640000",
          "155751.640000",
          "155751.640000",
          "155751.640000",
          "155751.656000",
          "155751.656000",
          "155751.656000",
          "155751.656000",
          "155751.656000",
          "155751.656000",
          "155751.656000",
          "155751.671000",
          "155751.671000",
          "155751.671000",
          "155751.671000",
          "155831.625000",
          "155831.625000",
          "155831.640000",
          "155831.640000",
          "155831.640000",
          "155831.640000",
          "155831.640000",
          "155831.640000",
          "155831.640000",
          "155831.656000",
          "155831.656000",
          "155831.656000",
          "155831.656000",
          "155831.656000",
          "155831.656000",
          "155831.656000",
          "155831.671000",
          "155831.671000",
          "155831.671000",
          "155831.671000",
          "155911.625000",
          "155911.625000",
          "155911.640000",
          "155911.640000",
          "155911.640000",
          "155911.640000",
          "155911.640000",
          "155911.640000",
          "155911.640000",
          "155911.640000",
          "155911.656000",
          "155911.656000",
          "155911.656000",
          "155911.656000",
          "155911.656000",
          "155911.656000",
          "155911.656000",
          "155911.671000",
          "155911.671000",
          "155911.671000",
          "155951.625000",
          "155951.625000",
          "155951.640000",
          "155951.640000",
          "155951.640000",
          "155951.640000",
          "155951.640000",
          "155951.640000",
          "155951.640000",
          "155951.656000",
          "155951.656000",
          "155951.656000",
          "155951.656000",
          "155951.656000",
          "155951.656000",
          "155951.656000",
          "155951.656000",
          "155951.671000",
          "155951.671000",
          "155951.671000",
          "160016.406000",
          "160016.406000",
          "160016.406000",
          "160016.406000",
          "160016.421000",
          "160016.421000",
          "160016.421000",
          "160016.421000",
          "160016.421000",
          "160016.421000",
          "160016.421000",
          "160016.437000",
          "160016.437000"
        ],
        "InstanceCreationTime": [
          "155231.640000",
          "155231.640000",
          "155231.640000",
          "155231.640000",
          "155231.640000",
          "155231.640000",
          "155231.656000",
          "155311.625000",
          "155311.625000",
          "155311.640000",
          "155311.640000",
          "155311.640000",
          "155311.640000",
          "155311.640000",
          "155311.640000",
          "155311.640000",
          "155311.656000",
          "155311.656000",
          "155311.656000",
          "155311.656000",
          "155311.656000",
          "155311.656000",
          "155311.671000",
          "155311.671000",
          "155311.671000",
          "155311.671000",
          "155311.671000",
          "155351.625000",
          "155351.625000",
          "155351.640000",
          "155351.640000",
          "155351.640000",
          "155351.640000",
          "155351.640000",
          "155351.656000",
          "155351.656000",
          "155351.656000",
          "155351.656000",
          "155351.656000",
          "155351.656000",
          "155351.671000",
          "155351.671000",
          "155351.671000",
          "155351.671000",
          "155351.671000",
          "155351.671000",
          "155351.671000",
          "155431.625000",
          "155431.625000",
          "155431.640000",
          "155431.640000",
          "155431.640000",
          "155431.640000",
          "155431.640000",
          "155431.640000",
          "155431.640000",
          "155431.656000",
          "155431.656000",
          "155431.656000",
          "155431.656000",
          "155431.656000",
          "155431.656000",
          "155431.656000",
          "155431.671000",
          "155431.671000",
          "155431.671000",
          "155431.671000",
          "155511.625000",
          "155511.625000",
          "155511.640000",
          "155511.640000",
          "155511.640000",
          "155511.640000",
          "155511.640000",
          "155511.640000",
          "155511.640000",
          "155511.656000",
          "155511.656000",
          "155511.656000",
          "155511.656000",
          "155511.656000",
          "155511.656000",
          "155511.656000",
          "155511.656000",
          "155511.671000",
          "155511.671000",
          "155511.671000",
          "155551.625000",
          "155551.625000",
          "155551.640000",
          "155551.640000",
          "155551.640000",
          "155551.640000",
          "155551.640000",
          "155551.640000",
          "155551.640000",
          "155551.656000",
          "155551.656000",
          "155551.656000",
          "155551.656000",
          "155551.656000",
          "155551.656000",
          "155551.656000",
          "155551.656000",
          "155551.671000",
          "155551.671000",
          "155551.671000",
          "155631.625000",
          "155631.625000",
          "155631.640000",
          "155631.640000",
          "155631.640000",
          "155631.640000",
          "155631.640000",
          "155631.640000",
          "155631.640000",
          "155631.656000",
          "155631.656000",
          "155631.656000",
          "155631.656000",
          "155631.656000",
          "155631.656000",
          "155631.656000",
          "155631.671000",
          "155631.671000",
          "155631.671000",
          "155631.671000",
          "155711.625000",
          "155711.625000",
          "155711.640000",
          "155711.640000",
          "155711.640000",
          "155711.640000",
          "155711.640000",
          "155711.640000",
          "155711.640000",
          "155711.656000",
          "155711.656000",
          "155711.656000",
          "155711.656000",
          "155711.656000",
          "155711.656000",
          "155711.656000",
          "155711.656000",
          "155711.671000",
          "155711.671000",
          "155711.671000",
          "155751.625000",
          "155751.640000",
          "155751.640000",
          "155751.640000",
          "155751.640000",
          "155751.640000",
          "155751.640000",
          "155751.640000",
          "155751.640000",
          "155751.656000",
          "155751.656000",
          "155751.656000",
          "155751.656000",
          "155751.656000",
          "155751.656000",
          "155751.656000",
          "155751.671000",
          "155751.671000",
          "155751.671000",
          "155751.671000",
          "155831.625000",
          "155831.625000",
          "155831.640000",
          "155831.640000",
          "155831.640000",
          "155831.640000",
          "155831.640000",
          "155831.640000",
          "155831.640000",
          "155831.656000",
          "155831.656000",
          "155831.656000",
          "155831.656000",
          "155831.656000",
          "155831.656000",
          "155831.656000",
          "155831.671000",
          "155831.671000",
          "155831.671000",
          "155831.671000",
          "155911.625000",
          "155911.625000",
          "155911.640000",
          "155911.640000",
          "155911.640000",
          "155911.640000",
          "155911.640000",
          "155911.640000",
          "155911.640000",
          "155911.640000",
          "155911.656000",
          "155911.656000",
          "155911.656000",
          "155911.656000",
          "155911.656000",
          "155911.656000",
          "155911.656000",
          "155911.671000",
          "155911.671000",
          "155911.671000",
          "155951.625000",
          "155951.625000",
          "155951.640000",
          "155951.640000",
          "155951.640000",
          "155951.640000",
          "155951.640000",
          "155951.640000",
          "155951.640000",
          "155951.656000",
          "155951.656000",
          "155951.656000",
          "155951.656000",
          "155951.656000",
          "155951.656000",
          "155951.656000",
          "155951.656000",
          "155951.671000",
          "155951.671000",
          "155951.671000",
          "160016.406000",
          "160016.406000",
          "160016.406000",
          "160016.406000",
          "160016.421000",
          "160016.421000",
          "160016.421000",
          "160016.421000",
          "160016.421000",
          "160016.421000",
          "160016.421000",
          "160016.437000",
          "160016.437000"
        ],
        "InstanceNumber": [
          1,
          2,
          3,
          4,
          5,
          6,
          7,
          8,
          9,
          10,
          11,
          12,
          13,
          14,
          15,
          16,
          17,
          18,
          19,
          20,
          21,
          22,
          23,
          24,
          25,
          26,
          27,
          28,
          29,
          30,
          31,
          32,
          33,
          34,
          35,
          36,
          37,
          38,
          39,
          40,
          41,
          42,
          43,
          44,
          45,
          46,
          47,
          48,
          49,
          50,
          51,
          52,
          53,
          54,
          55,
          56,
          57,
          58,
          59,
