{
  "aor": 0.0059222499999999996,
  "aqi": 0.025618892083333334,
  "bids_meta": {
    "AcquisitionMatrixPE": 68,
    "AcquisitionNumber": 1,
    "AcquisitionTime": "16:11:32.142500",
    "BandwidthPerPixelPhaseEncode": 31.289,
    "BaseResolution": 68,
    "CogAtlasID": "TODO",
    "CoilString": "C:HEA;HEP",
    "ConversionSoftware": "dcm2niix",
    "ConversionSoftwareVersion": "v1.0.20190902",
    "DerivedVendorReportedEchoSpacing": 0.000470002,
    "DeviceSerialNumber": "35450",
    "DwellTime": 3e-06,
    "EchoTime": 0.023,
    "EffectiveEchoSpacing": 0.000470002,
    "FlipAngle": 76,
    "ImageOrientationPatientDICOM": [
      1,
      0,
      0,
      0,
      0.999391,
      -0.0348995
    ],
    "ImageType": [
      "ORIGINAL",
      "PRIMARY",
      "M",
      "ND",
      "MOSAIC"
    ],
    "ImagingFrequency": 123.219,
    "InPlanePhaseEncodingDirectionDICOM": "COL",
    "InstitutionAddress": "Univeristy_Ave._197_Newark_North_East_US_07102-1814",
    "InstitutionName": "RUBIC",
    "InstitutionalDepartmentName": "Department",
    "MRAcquisitionType": "2D",
    "MagneticFieldStrength": 3,
    "Manufacturer": "Siemens",
    "ManufacturersModelName": "TrioTim",
    "Modality": "MR",
    "PartialFourier": 1,
    "PatientPosition": "HFS",
    "PercentPhaseFOV": 100,
    "PhaseEncodingDirection": "j-",
    "PhaseEncodingSteps": 68,
    "PhaseResolution": 1,
    "PixelBandwidth": 2451,
    "ProcedureStepDescription": "Krekelberg_David",
    "ProtocolName": "ep2d_bold_RestEPI_2",
    "PulseSequenceDetails": "%SiemensSeq%_ep2d_bold",
    "ReceiveCoilName": "HeadMatrix",
    "ReconMatrixPE": 68,
    "RepetitionTime": 2,
    "SAR": 0.213935,
    "ScanOptions": "FS",
    "ScanningSequence": "EP",
    "SequenceName": "_epfid2d1_68",
    "SequenceVariant": "SK",
    "SeriesDescription": "ep2d_bold_RestEPI_2",
    "SeriesNumber": 9,
    "ShimSetting": [
      1920,
      -692,
      -7654,
      544,
      104,
      -21,
      -246,
      7
    ],
    "SliceThickness": 2.5,
    "SliceTiming": [
      1.95,
      1.895,
      1.84,
      1.7825,
      1.7275,
      1.6725,
      1.615,
      1.56,
      1.505,
      1.45,
      1.3925,
      1.3375,
      1.2825,
      1.225,
      1.17,
      1.115,
      1.0575,
      1.0025,
      0.9475,
      0.89,
      0.835,
      0.78,
      0.725,
      0.6675,
      0.6125,
      0.5575,
      0.5,
      0.445,
      0.39,
      0.3325,
      0.2775,
      0.2225,
      0.1675,
      0.11,
      0.055,
      0
    ],
    "SoftwareVersions": "syngo_MR_B19",
    "SpacingBetweenSlices": 3,
    "StationName": "MRC35450",
    "TaskName": "rest",
    "TotalReadoutTime": 0.0314901,
    "TxRefAmp": 372.731,
    "dataset": "<unset>",
    "dcmmeta_affine": [
      [
        -3.0,
        0.0,
        0.0,
        102.0
      ],
      [
        0.0,
        2.9981725215911865,
        -0.10469849407672882,
        -75.41255187988281
      ],
      [
        0.0,
        0.10469849407672882,
        2.9981725215911865,
        -34.90612030029297
      ],
      [
        0.0,
        0.0,
        0.0,
        1.0
      ]
    ],
    "dcmmeta_reorient_transform": [
      [
        0.0,
        -1.0,
        0.0,
        67.0
      ],
      [
        1.0,
        0.0,
        0.0,
        0.0
      ],
      [
        0.0,
        0.0,
        1.0,
        0.0
      ],
      [
        0.0,
        0.0,
        0.0,
        1.0
      ]
    ],
    "dcmmeta_shape": [
      68,
      68,
      36,
      240
    ],
    "dcmmeta_slice_dim": 2,
    "dcmmeta_version": 0.6,
    "global": {
      "const": {
        "AcquisitionMatrix": [
          68,
          0,
          0,
          68
        ],
        "AngioFlag": "N",
        "BitsAllocated": 16,
        "BitsStored": 12,
        "Columns": 408,
        "EchoNumbers": 1,
        "EchoTime": 23.0,
        "EchoTrainLength": 1,
        "FlipAngle": 76.0,
        "HighBit": 11,
        "ImageOrientationPatient": [
          1.0,
          0.0,
          0.0,
          0.0,
          0.99939082696012,
          -0.0348994983914
        ],
        "ImagePositionPatient": [
          -612.0,
          -635.15432576329,
          -10.092575862644
        ],
        "ImageType": [
          "ORIGINAL",
          "PRIMARY",
          "M",
          "ND",
          "MOSAIC"
        ],
        "ImagedNucleus": "1H",
        "ImagingFrequency": 123.21858,
        "InPlanePhaseEncodingDirection": "COL",
        "MRAcquisitionType": "2D",
        "MagneticFieldStrength": 3.0,
        "Manufacturer": "SIEMENS",
        "ManufacturerModelName": "TrioTim",
        "Modality": "MR",
        "NumberOfAverages": 1.0,
        "NumberOfPhaseEncodingSteps": 68,
        "PercentPhaseFieldOfView": 100.0,
        "PercentSampling": 100.0,
        "PerformedProcedureStepStartTime": "152922.984000",
        "PhotometricInterpretation": "MONOCHROME2",
        "PixelBandwidth": 2451.0,
        "PixelRepresentation": 0,
        "PixelSpacing": [
          3.0,
          3.0
        ],
        "ProtocolName": "ep2d_bold_RestEPI_2",
        "RepetitionTime": 2000.0,
        "Rows": 408,
        "SAR": 0.21393486843173,
        "SamplesPerPixel": 1,
        "ScanOptions": "FS",
        "ScanningSequence": "EP",
        "SequenceName": "*epfid2d1_68",
        "SequenceVariant": "SK",
        "SeriesDescription": "ep2d_bold_RestEPI_2",
        "SeriesNumber": 9,
        "SeriesTime": "161226.437000",
        "SliceLocation": -32.252995107785,
        "SliceThickness": 2.5,
        "SmallestImagePixelValue": 0,
        "SoftwareVersions": "syngo MR B19",
        "SpacingBetweenSlices": 3.0000000615615,
        "SpecificCharacterSet": "ISO_IR 100",
        "StudyID": "1",
        "StudyTime": "152922.937000",
        "TransmitCoilName": "Body",
        "VariableFlipAngleFlag": "N",
        "WindowCenterWidthExplanation": "Algo1",
        "dBdt": 0.0
      },
      "slices": {}
    },
    "modality": "bold",
    "run_id": 2,
    "subject_id": "209",
    "task_id": "rest",
    "time": {
      "samples": {
        "AcquisitionNumber": [
          1,
          2,
          3,
          4,
          5,
          6,
          7,
          8,
          9,
          10,
          11,
          12,
          13,
          14,
          15,
          16,
          17,
          18,
          19,
          20,
          21,
          22,
          23,
          24,
          25,
          26,
          27,
          28,
          29,
          30,
          31,
          32,
          33,
          34,
          35,
          36,
          37,
          38,
          39,
          40,
          41,
          42,
          43,
          44,
          45,
          46,
          47,
          48,
          49,
          50,
          51,
          52,
          53,
          54,
          55,
          56,
          57,
          58,
          59,
          60,
          61,
          62,
          63,
          64,
          65,
          66,
          67,
          68,
          69,
          70,
          71,
          72,
          73,
          74,
          75,
          76,
          77,
          78,
          79,
          80,
          81,
          82,
          83,
          84,
          85,
          86,
          87,
          88,
          89,
          90,
          91,
          92,
          93,
          94,
          95,
          96,
          97,
          98,
          99,
          100,
          101,
          102,
          103,
          104,
          105,
          106,
          107,
          108,
          109,
          110,
          111,
          112,
          113,
          114,
          115,
          116,
          117,
          118,
          119,
          120,
          121,
          122,
          123,
          124,
          125,
          126,
          127,
          128,
          129,
          130,
          131,
          132,
          133,
          134,
          135,
          136,
          137,
          138,
          139,
          140,
          141,
          142,
          143,
          144,
          145,
          146,
          147,
          148,
          149,
          150,
          151,
          152,
          153,
          154,
          155,
          156,
          157,
          158,
          159,
          160,
          161,
          162,
          163,
          164,
          165,
          166,
          167,
          168,
          169,
          170,
          171,
          172,
          173,
          174,
          175,
          176,
          177,
          178,
          179,
          180,
          181,
          182,
          183,
          184,
          185,
          186,
          187,
          188,
          189,
          190,
          191,
          192,
          193,
          194,
          195,
          196,
          197,
          198,
          199,
          200,
          201,
          202,
          203,
          204,
          205,
          206,
          207,
          208,
          209,
          210,
          211,
          212,
          213,
          214,
          215,
          216,
          217,
          218,
          219,
          220,
          221,
          222,
          223,
          224,
          225,
          226,
          227,
          228,
          229,
          230,
          231,
          232,
          233,
          234,
          235,
          236,
          237,
          238,
          239,
          240
        ],
        "AcquisitionTime": [
          "161132.142500",
          "161134.150000",
          "161136.160000",
          "161138.167500",
          "161140.175000",
          "161142.182500",
          "161144.192500",
          "161146.200000",
          "161148.207500",
          "161150.215000",
          "161152.222500",
          "161154.232500",
          "161156.240000",
          "161158.247500",
          "161200.255000",
          "161202.262500",
          "161204.272500",
          "161206.280000",
          "161208.287500",
          "161210.295000",
          "161212.305000",
          "161214.312500",
          "161216.320000",
          "161218.327500",
          "161220.335000",
          "161222.345000",
          "161224.352500",
          "161226.360000",
          "161228.367500",
          "161230.375000",
          "161232.385000",
          "161234.392500",
          "161236.400000",
          "161238.407500",
          "161240.417500",
          "161242.425000",
          "161244.432500",
          "161246.440000",
          "161248.447500",
          "161250.457500",
          "161252.465000",
          "161254.472500",
          "161256.480000",
          "161258.487500",
          "161300.497500",
          "161302.505000",
          "161304.512500",
          "161306.520000",
          "161308.527500",
          "161310.537500",
          "161312.545000",
          "161314.552500",
          "161316.560000",
          "161318.570000",
          "161320.577500",
          "161322.585000",
          "161324.592500",
          "161326.600000",
          "161328.610000",
          "161330.617500",
          "161332.625000",
          "161334.632500",
          "161336.640000",
          "161338.650000",
          "161340.657500",
          "161342.665000",
          "161344.672500",
          "161346.682500",
          "161348.690000",
          "161350.697500",
          "161352.705000",
          "161354.712500",
          "161356.722500",
          "161358.730000",
          "161400.737500",
          "161402.745000",
          "161404.752500",
          "161406.762500",
          "161408.770000",
          "161410.777500",
          "161412.785000",
          "161414.795000",
          "161416.802500",
          "161418.810000",
          "161420.817500",
          "161422.825000",
          "161424.835000",
          "161426.842500",
          "161428.850000",
          "161430.857500",
          "161432.865000",
          "161434.875000",
          "161436.882500",
          "161438.890000",
          "161440.897500",
          "161442.907500",
          "161444.915000",
          "161446.922500",
          "161448.930000",
          "161450.937500",
          "161452.947500",
          "161454.955000",
          "161456.962500",
          "161458.970000",
          "161500.977500",
          "161502.987500",
          "161504.995000",
          "161507.002500",
          "161509.010000",
          "161511.017500",
          "161513.027500",
          "161515.035000",
          "161517.042500",
          "161519.050000",
          "161521.060000",
          "161523.067500",
          "161525.075000",
          "161527.082500",
          "161529.090000",
          "161531.100000",
          "161533.107500",
          "161535.115000",
          "161537.122500",
          "161539.130000",
          "161541.140000",
          "161543.147500",
          "161545.155000",
          "161547.162500",
          "161549.172500",
          "161551.180000",
          "161553.187500",
          "161555.195000",
          "161557.202500",
          "161559.212500",
          "161601.220000",
          "161603.227500",
          "161605.235000",
          "161607.242500",
          "161609.252500",
          "161611.260000",
          "161613.267500",
          "161615.275000",
          "161617.285000",
          "161619.292500",
          "161621.300000",
          "161623.307500",
          "161625.315000",
          "161627.325000",
          "161629.332500",
          "161631.340000",
          "161633.347500",
          "161635.355000",
          "161637.365000",
          "161639.372500",
          "161641.380000",
          "161643.387500",
          "161645.395000",
          "161647.405000",
          "161649.412500",
          "161651.420000",
          "161653.427500",
          "161655.437500",
          "161657.445000",
          "161659.452500",
          "161701.460000",
          "161703.467500",
          "161705.477500",
          "161707.485000",
          "161709.492500",
          "161711.500000",
          "161713.507500",
          "161715.517500",
          "161717.525000",
          "161719.532500",
          "161721.540000",
          "161723.550000",
          "161725.557500",
          "161727.565000",
          "161729.572500",
          "161731.580000",
          "161733.590000",
          "161735.597500",
          "161737.605000",
          "161739.612500",
          "161741.620000",
          "161743.630000",
          "161745.637500",
          "161747.645000",
          "161749.652500",
          "161751.662500",
          "161753.670000",
          "161755.677500",
          "161757.685000",
          "161759.692500",
          "161801.702500",
          "161803.710000",
          "161805.717500",
          "161807.725000",
          "161809.732500",
          "161811.742500",
          "161813.750000",
          "161815.757500",
          "161817.765000",
          "161819.772500",
          "161821.782500",
          "161823.790000",
          "161825.797500",
          "161827.805000",
          "161829.815000",
          "161831.822500",
          "161833.830000",
          "161835.837500",
          "161837.845000",
          "161839.855000",
          "161841.862500",
          "161843.870000",
          "161845.877500",
          "161847.885000",
          "161849.895000",
          "161851.902500",
          "161853.910000",
          "161855.917500",
          "161857.927500",
          "161859.935000",
          "161901.942500",
          "161903.950000",
          "161905.957500",
          "161907.967500",
          "161909.975000",
          "161911.982500",
          "161913.990000",
          "161915.997500",
          "161918.007500",
          "161920.015000",
          "161922.022500",
          "161924.030000",
          "161926.040000",
          "161928.047500",
          "161930.055000",
          "161932.062500"
        ],
        "ContentTime": [
          "161226.453000",
          "161226.453000",
          "161226.453000",
          "161226.453000",
          "161226.453000",
          "161226.453000",
          "161226.453000",
          "161226.468000",
          "161226.468000",
          "161226.468000",
          "161226.468000",
          "161226.468000",
          "161226.468000",
          "161226.468000",
          "161226.484000",
          "161226.484000",
          "161226.484000",
          "161226.484000",
          "161226.484000",
          "161226.484000",
          "161226.484000",
          "161226.500000",
          "161226.500000",
          "161226.500000",
          "161226.500000",
          "161226.500000",
          "161226.500000",
          "161306.437000",
          "161306.437000",
          "161306.453000",
          "161306.453000",
          "161306.453000",
          "161306.453000",
          "161306.453000",
          "161306.453000",
          "161306.453000",
          "161306.468000",
          "161306.468000",
          "161306.468000",
          "161306.468000",
          "161306.468000",
          "161306.468000",
          "161306.468000",
          "161306.484000",
          "161306.484000",
          "161306.484000",
          "161306.484000",
          "161346.437000",
          "161346.437000",
          "161346.453000",
          "161346.453000",
          "161346.453000",
          "161346.453000",
          "161346.453000",
          "161346.453000",
          "161346.453000",
          "161346.468000",
          "161346.468000",
          "161346.484000",
          "161346.484000",
          "161346.484000",
          "161346.484000",
          "161346.484000",
          "161346.484000",
          "161346.484000",
          "161346.500000",
          "161346.500000",
          "161426.437000",
          "161426.437000",
          "161426.453000",
          "161426.453000",
          "161426.453000",
          "161426.453000",
          "161426.453000",
          "161426.453000",
          "161426.453000",
          "161426.468000",
          "161426.468000",
          "161426.468000",
          "161426.468000",
          "161426.468000",
          "161426.484000",
          "161426.484000",
          "161426.484000",
          "161426.484000",
          "161426.484000",
          "161426.484000",
          "161506.437000",
          "161506.437000",
          "161506.453000",
          "161506.453000",
          "161506.453000",
          "161506.453000",
          "161506.453000",
          "161506.453000",
          "161506.453000",
          "161506.468000",
          "161506.468000",
          "161506.468000",
          "161506.468000",
          "161506.468000",
          "161506.468000",
          "161506.468000",
          "161506.484000",
          "161506.484000",
          "161506.484000",
          "161506.484000",
          "161546.437000",
          "161546.453000",
          "161546.453000",
          "161546.453000",
          "161546.453000",
          "161546.453000",
          "161546.453000",
          "161546.453000",
          "161546.453000",
          "161546.468000",
          "161546.468000",
          "161546.468000",
          "161546.468000",
          "161546.468000",
          "161546.468000",
          "161546.468000",
          "161546.484000",
          "161546.484000",
          "161546.484000",
          "161546.484000",
          "161626.437000",
          "161626.437000",
          "161626.453000",
          "161626.453000",
          "161626.453000",
          "161626.453000",
          "161626.453000",
          "161626.453000",
          "161626.453000",
          "161626.468000",
          "161626.468000",
          "161626.468000",
          "161626.468000",
          "161626.468000",
          "161626.468000",
          "161626.468000",
          "161626.484000",
          "161626.484000",
          "161626.484000",
          "161626.484000",
          "161706.437000",
          "161706.437000",
          "161706.453000",
          "161706.453000",
          "161706.453000",
          "161706.453000",
          "161706.453000",
          "161706.453000",
          "161706.453000",
          "161706.468000",
          "161706.468000",
          "161706.468000",
          "161706.468000",
          "161706.468000",
          "161706.468000",
          "161706.484000",
          "161706.484000",
          "161706.484000",
          "161706.484000",
          "161706.484000",
          "161746.437000",
          "161746.437000",
          "161746.453000",
          "161746.453000",
          "161746.453000",
          "161746.453000",
          "161746.453000",
          "161746.453000",
          "161746.453000",
          "161746.468000",
          "161746.468000",
          "161746.468000",
          "161746.468000",
          "161746.468000",
          "161746.468000",
          "161746.484000",
          "161746.484000",
          "161746.484000",
          "161746.484000",
          "161746.484000",
          "161826.437000",
          "161826.453000",
          "161826.453000",
          "161826.453000",
          "161826.453000",
          "161826.453000",
          "161826.453000",
          "161826.453000",
          "161826.453000",
          "161826.468000",
          "161826.468000",
          "161826.468000",
          "161826.468000",
          "161826.468000",
          "161826.484000",
          "161826.484000",
          "161826.484000",
          "161826.484000",
          "161826.484000",
          "161826.500000",
          "161906.437000",
          "161906.437000",
          "161906.453000",
          "161906.453000",
          "161906.453000",
          "161906.453000",
          "161906.453000",
          "161906.453000",
          "161906.453000",
          "161906.468000",
          "161906.468000",
          "161906.468000",
          "161906.468000",
          "161906.468000",
          "161906.468000",
          "161906.468000",
          "161906.484000",
          "161906.484000",
          "161906.484000",
          "161906.484000",
          "161930.750000",
          "161930.750000",
          "161930.750000",
          "161930.750000",
          "161930.750000",
          "161930.750000",
          "161930.765000",
          "161930.765000",
          "161930.765000",
          "161930.765000",
          "161930.765000",
          "161930.765000",
          "161930.765000"
        ],
        "InstanceCreationTime": [
          "161226.453000",
          "161226.453000",
          "161226.453000",
          "161226.453000",
          "161226.453000",
          "161226.453000",
          "161226.453000",
          "161226.468000",
          "161226.468000",
          "161226.468000",
          "161226.468000",
          "161226.468000",
          "161226.468000",
          "161226.468000",
          "161226.484000",
          "161226.484000",
          "161226.484000",
          "161226.484000",
          "161226.484000",
          "161226.484000",
          "161226.484000",
          "161226.500000",
          "161226.500000",
          "161226.500000",
          "161226.500000",
          "161226.500000",
          "161226.500000",
          "161306.437000",
          "161306.437000",
          "161306.453000",
          "161306.453000",
          "161306.453000",
          "161306.453000",
          "161306.453000",
          "161306.453000",
          "161306.453000",
          "161306.468000",
          "161306.468000",
          "161306.468000",
          "161306.468000",
          "161306.468000",
          "161306.468000",
          "161306.468000",
          "161306.484000",
          "161306.484000",
          "161306.484000",
          "161306.484000",
          "161346.437000",
          "161346.437000",
          "161346.453000",
          "161346.453000",
          "161346.453000",
          "161346.453000",
          "161346.453000",
          "161346.453000",
          "161346.453000",
          "161346.468000",
          "161346.468000",
          "161346.484000",
          "161346.484000",
          "161346.484000",
          "161346.484000",
          "161346.484000",
          "161346.484000",
          "161346.484000",
          "161346.500000",
          "161346.500000",
          "161426.437000",
          "161426.437000",
          "161426.453000",
          "161426.453000",
          "161426.453000",
          "161426.453000",
          "161426.453000",
          "161426.453000",
          "161426.453000",
          "161426.468000",
          "161426.468000",
          "161426.468000",
          "161426.468000",
          "161426.468000",
          "161426.484000",
          "161426.484000",
          "161426.484000",
          "161426.484000",
          "161426.484000",
          "161426.484000",
          "161506.437000",
          "161506.437000",
          "161506.453000",
          "161506.453000",
          "161506.453000",
          "161506.453000",
          "161506.453000",
          "161506.453000",
          "161506.453000",
          "161506.468000",
          "161506.468000",
          "161506.468000",
          "161506.468000",
          "161506.468000",
          "161506.468000",
          "161506.468000",
          "161506.484000",
          "161506.484000",
          "161506.484000",
          "161506.484000",
          "161546.437000",
          "161546.453000",
          "161546.453000",
          "161546.453000",
          "161546.453000",
          "161546.453000",
          "161546.453000",
          "161546.453000",
          "161546.453000",
          "161546.468000",
          "161546.468000",
          "161546.468000",
          "161546.468000",
          "161546.468000",
          "161546.468000",
          "161546.468000",
          "161546.484000",
          "161546.484000",
          "161546.484000",
          "161546.484000",
          "161626.437000",
          "161626.437000",
          "161626.453000",
          "161626.453000",
          "161626.453000",
          "161626.453000",
          "161626.453000",
          "161626.453000",
          "161626.453000",
          "161626.468000",
          "161626.468000",
          "161626.468000",
          "161626.468000",
          "161626.468000",
          "161626.468000",
          "161626.468000",
          "161626.484000",
          "161626.484000",
          "161626.484000",
          "161626.484000",
          "161706.437000",
          "161706.437000",
          "161706.453000",
          "161706.453000",
          "161706.453000",
          "161706.453000",
          "161706.453000",
          "161706.453000",
          "161706.453000",
          "161706.468000",
          "161706.468000",
          "161706.468000",
          "161706.468000",
          "161706.468000",
          "161706.468000",
          "161706.484000",
          "161706.484000",
          "161706.484000",
          "161706.484000",
          "161706.484000",
          "161746.437000",
          "161746.437000",
          "161746.453000",
          "161746.453000",
          "161746.453000",
          "161746.453000",
          "161746.453000",
          "161746.453000",
          "161746.453000",
          "161746.468000",
          "161746.468000",
          "161746.468000",
          "161746.468000",
          "161746.468000",
          "161746.468000",
          "161746.484000",
          "161746.484000",
          "161746.484000",
          "161746.484000",
          "161746.484000",
          "161826.437000",
          "161826.453000",
          "161826.453000",
          "161826.453000",
          "161826.453000",
          "161826.453000",
          "161826.453000",
          "161826.453000",
          "161826.453000",
          "161826.468000",
          "161826.468000",
          "161826.468000",
          "161826.468000",
          "161826.468000",
          "161826.484000",
          "161826.484000",
          "161826.484000",
          "161826.484000",
          "161826.484000",
          "161826.500000",
          "161906.437000",
          "161906.437000",
          "161906.453000",
          "161906.453000",
          "161906.453000",
          "161906.453000",
          "161906.453000",
          "161906.453000",
          "161906.453000",
          "161906.468000",
          "161906.468000",
          "161906.468000",
          "161906.468000",
          "161906.468000",
          "161906.468000",
          "161906.468000",
          "161906.484000",
          "161906.484000",
          "161906.484000",
          "161906.484000",
          "161930.750000",
          "161930.750000",
          "161930.750000",
          "161930.750000",
          "161930.750000",
          "161930.750000",
          "161930.765000",
          "161930.765000",
          "161930.765000",
          "161930.765000",
          "161930.765000",
          "161930.765000",
          "161930.765000"
        ],
        "InstanceNumber": [
          1,
          2,
          3,
          4,
          5,
          6,
          7,
          8,
          9,
          10,
          11,
          12,
          13,
          14,
          15,
          16,
          17,
          18,
          19,
          20,
          21,
          22,
          23,
          24,
          25,
          26,
          27,
          28,
          29,
          30,
          31,
          32,
          33,
          34,
          35,
          36,
          37,
          38,
          39,
          40,
          41,
          42,
          43,
          44,
          45,
          46,
          47,
          48,
          49,
          50,
          51,
          52,
          53,
          54,
          55,
          56,
          57,
          58,
          59,
