{
  "AcquisitionMatrixPE": 68,
  "AcquisitionNumber": 1,
  "AcquisitionTime": "15:37:7.797500",
  "BandwidthPerPixelPhaseEncode": 31.289,
  "BaseResolution": 68,
  "CoilString": "C:HEA;HEP",
  "ConversionSoftware": "dcm2niix",
  "ConversionSoftwareVersion": "v1.0.20190902",
  "DerivedVendorReportedEchoSpacing": 0.000470002,
  "DeviceSerialNumber": "35450",
  "DwellTime": 3e-06,
  "EchoTime": 0.023,
  "EffectiveEchoSpacing": 0.000470002,
  "FlipAngle": 76,
  "ImageOrientationPatientDICOM": [0.999976, 0.000814536, 0.00693358, -2.7569e-08, 0.993171, -0.116671],
  "ImageType": [
    "ORIGINAL",
    "PRIMARY",
    "M",
    "ND",
    "MOSAIC"
],
  "ImagingFrequency": 123.219,
  "InPlanePhaseEncodingDirectionDICOM": "COL",
  "InstitutionAddress": "Univeristy_Ave._197_Newark_North_East_US_07102-1814",
  "InstitutionName": "RUBIC",
  "InstitutionalDepartmentName": "Department",
  "MRAcquisitionType": "2D",
  "MagneticFieldStrength": 3,
  "Manufacturer": "Siemens",
  "ManufacturersModelName": "TrioTim",
  "Modality": "MR",
  "PartialFourier": 1,
  "PatientPosition": "HFS",
  "PercentPhaseFOV": 100,
  "PhaseEncodingDirection": "j-",
  "PhaseEncodingSteps": 68,
  "PhaseResolution": 1,
  "PixelBandwidth": 2451,
  "ProcedureStepDescription": "Krekelberg_David",
  "ProtocolName": "ep2d_bold_RestEPI_1",
  "PulseSequenceDetails": "%SiemensSeq%_ep2d_bold",
  "ReceiveCoilName": "HeadMatrix",
  "ReconMatrixPE": 68,
  "RepetitionTime": 2,
  "SAR": 0.18417,
  "ScanOptions": "FS",
  "ScanningSequence": "EP",
  "SequenceName": "_epfid2d1_68",
  "SequenceVariant": "SK",
  "SeriesDescription": "ep2d_bold_RestEPI_1",
  "SeriesNumber": 7,
  "ShimSetting": [1974, -656, -7530, 714, 83, -34, -503, -71],
  "SliceThickness": 2.5,
  "SliceTiming": [1.9525, 1.895, 1.84, 1.785, 1.7275, 1.6725, 1.6175, 1.56, 1.505, 1.45, 1.395, 1.3375, 1.2825, 1.2275, 1.17, 1.115, 1.06, 1.0025, 0.9475, 0.8925, 0.835, 0.78, 0.725, 0.67, 0.6125, 0.5575, 0.5025, 0.445, 0.39, 0.335, 0.2775, 0.2225, 0.1675, 0.1125, 0.055, 0],
  "SoftwareVersions": "syngo_MR_B19",
  "SpacingBetweenSlices": 3,
  "StationName": "MRC35450",
  "TaskName": "rest",
  "TotalReadoutTime": 0.0314901,
  "TxRefAmp": 347.536,
  "dcmmeta_affine": [
    [-2.999926805496216, -8.270708917734737e-08, 0.0209437794983387, 102.98693084716797],
    [-0.0024436083622276783, 2.9795119762420654, -0.3500036895275116, -75.16548919677734],
    [0.020800737664103508, 0.3500122129917145, 2.9794392585754395, -48.12656784057617],
    [0.0, 0.0, 0.0, 1.0]
],
  "dcmmeta_reorient_transform": [
    [0.0, -1.0, 0.0, 67.0],
    [1.0, 0.0, 0.0, 0.0],
    [0.0, 0.0, 1.0, 0.0],
    [0.0, 0.0, 0.0, 1.0]
],
  "dcmmeta_shape": [68, 68, 36, 240],
  "dcmmeta_slice_dim": 2,
  "dcmmeta_version": 0.6,
  "global": {
    "const": {
      "AcquisitionMatrix": [68, 0, 0, 68],
      "AngioFlag": "N",
      "BitsAllocated": 16,
      "BitsStored": 12,
      "Columns": 408,
      "EchoNumbers": 1,
      "EchoTime": 23.0,
      "EchoTrainLength": 1,
      "FlipAngle": 76.0,
      "HighBit": 11,
      "ImageOrientationPatient": [0.99997563070726, 0.0008145361468, 0.00693357934158, -2.756903e-08, 0.99317064931944, -0.116670738964],
      "ImagePositionPatient": [-612.97448518343, -631.39425470285, 31.290203242885],
      "ImageType": [
        "ORIGINAL",
        "PRIMARY",
        "M",
        "ND",
        "MOSAIC"
],
      "ImagedNucleus": "1H",
      "ImagingFrequency": 123.218521,
      "InPlanePhaseEncodingDirection": "COL",
      "MRAcquisitionType": "2D",
      "MagneticFieldStrength": 3.0,
      "Manufacturer": "SIEMENS",
      "ManufacturerModelName": "TrioTim",
      "Modality": "MR",
      "NumberOfAverages": 1.0,
      "NumberOfPhaseEncodingSteps": 68,
      "PercentPhaseFieldOfView": 100.0,
      "PercentSampling": 100.0,
      "PerformedProcedureStepStartTime": "150404.187000",
      "PhotometricInterpretation": "MONOCHROME2",
      "PixelBandwidth": 2451.0,
      "PixelRepresentation": 0,
      "PixelSpacing": [3.0, 3.0],
      "ProtocolName": "ep2d_bold_RestEPI_1",
      "RepetitionTime": 2000.0,
      "Rows": 408,
      "SAR": 0.18417030687757,
      "SamplesPerPixel": 1,
      "ScanOptions": "FS",
      "ScanningSequence": "EP",
      "SequenceName": "*epfid2d1_68",
      "SequenceVariant": "SK",
      "SeriesDescription": "ep2d_bold_RestEPI_1",
      "SeriesNumber": 7,
      "SeriesTime": "153726.593000",
      "SliceLocation": -38.308350549893,
      "SliceThickness": 2.5,
      "SmallestImagePixelValue": 0,
      "SoftwareVersions": "syngo MR B19",
      "SpacingBetweenSlices": 2.9999999832036,
      "SpecificCharacterSet": "ISO_IR 100",
      "StudyID": "1",
      "StudyTime": "150404.140000",
      "TransmitCoilName": "Body",
      "VariableFlipAngleFlag": "N",
      "WindowCenterWidthExplanation": "Algo1",
      "dBdt": 0.0},
    "slices": {}
  },
  "time": {
    "samples": {
      "AcquisitionNumber": [1, 2, 3, 4, 5, 6, 7, 8, 9, 10, 11, 12, 13, 14, 15, 16, 17, 18, 19, 20, 21, 22, 23, 24, 25, 26, 27, 28, 29, 30, 31, 32, 33, 34, 35, 36, 37, 38, 39, 40, 41, 42, 43, 44, 45, 46, 47, 48, 49, 50, 51, 52, 53, 54, 55, 56, 57, 58, 59, 60, 61, 62, 63, 64, 65, 66, 67, 68, 69, 70, 71, 72, 73, 74, 75, 76, 77, 78, 79, 80, 81, 82, 83, 84, 85, 86, 87, 88, 89, 90, 91, 92, 93, 94, 95, 96, 97, 98, 99, 100, 101, 102, 103, 104, 105, 106, 107, 108, 109, 110, 111, 112, 113, 114, 115, 116, 117, 118, 119, 120, 121, 122, 123, 124, 125, 126, 127, 128, 129, 130, 131, 132, 133, 134, 135, 136, 137, 138, 139, 140, 141, 142, 143, 144, 145, 146, 147, 148, 149, 150, 151, 152, 153, 154, 155, 156, 157, 158, 159, 160, 161, 162, 163, 164, 165, 166, 167, 168, 169, 170, 171, 172, 173, 174, 175, 176, 177, 178, 179, 180, 181, 182, 183, 184, 185, 186, 187, 188, 189, 190, 191, 192, 193, 194, 195, 196, 197, 198, 199, 200, 201, 202, 203, 204, 205, 206, 207, 208, 209, 210, 211, 212, 213, 214, 215, 216, 217, 218, 219, 220, 221, 222, 223, 224, 225, 226, 227, 228, 229, 230, 231, 232, 233, 234, 235, 236, 237, 238, 239, 240],
      "AcquisitionTime": ["153707.797500", "153709.805000", "153711.812500", "153713.820000", "153715.827500", "153717.837500", "153719.845000", "153721.852500", "153723.860000", "153725.867500", "153727.877500", "153729.885000", "153731.892500", "153733.900000", "153735.910000", "153737.917500", "153739.925000", "153741.932500", "153743.940000", "153745.950000", "153747.957500", "153749.965000", "153751.972500", "153753.980000", "153755.990000", "153757.997500", "153800.005000", "153802.012500", "153804.022500", "153806.030000", "153808.037500", "153810.045000", "153812.052500", "153814.062500", "153816.070000", "153818.077500", "153820.085000", "153822.092500", "153824.102500", "153826.110000", "153828.117500", "153830.125000", "153832.135000", "153834.142500", "153836.150000", "153838.157500", "153840.165000", "153842.175000", "153844.182500", "153846.190000", "153848.197500", "153850.205000", "153852.215000", "153854.222500", "153856.230000", "153858.237500", "153900.245000", "153902.255000", "153904.262500", "153906.270000", "153908.277500", "153910.287500", "153912.295000", "153914.302500", "153916.310000", "153918.317500", "153920.327500", "153922.335000", "153924.342500", "153926.350000", "153928.357500", "153930.367500", "153932.375000", "153934.382500", "153936.390000", "153938.400000", "153940.407500", "153942.415000", "153944.422500", "153946.430000", "153948.440000", "153950.447500", "153952.455000", "153954.462500", "153956.470000", "153958.480000", "154000.487500", "154002.495000", "154004.502500", "154006.512500", "154008.520000", "154010.527500", "154012.535000", "154014.542500", "154016.552500", "154018.560000", "154020.567500", "154022.575000", "154024.582500", "154026.592500", "154028.600000", "154030.607500", "154032.615000", "154034.622500", "154036.632500", "154038.640000", "154040.647500", "154042.655000", "154044.665000", "154046.672500", "154048.680000", "154050.687500", "154052.695000", "154054.705000", "154056.712500", "154058.720000", "154100.727500", "154102.735000", "154104.745000", "154106.752500", "154108.760000", "154110.767500", "154112.777500", "154114.785000", "154116.792500", "154118.800000", "154120.807500", "154122.817500", "154124.825000", "154126.832500", "154128.840000", "154130.847500", "154132.857500", "154134.865000", "154136.872500", "154138.880000", "154140.890000", "154142.897500", "154144.905000", "154146.912500", "154148.920000", "154150.930000", "154152.937500", "154154.945000", "154156.952500", "154158.960000", "154200.970000", "154202.977500", "154204.985000", "154206.992500", "154209.002500", "154211.010000", "154213.017500", "154215.025000", "154217.032500", "154219.042500", "154221.050000", "154223.057500", "154225.065000", "154227.072500", "154229.082500", "154231.090000", "154233.097500", "154235.105000", "154237.112500", "154239.122500", "154241.130000", "154243.137500", "154245.145000", "154247.155000", "154249.162500", "154251.170000", "154253.177500", "154255.185000", "154257.195000", "154259.202500", "154301.210000", "154303.217500", "154305.225000", "154307.235000", "154309.242500", "154311.250000", "154313.257500", "154315.267500", "154317.275000", "154319.282500", "154321.290000", "154323.297500", "154325.307500", "154327.315000", "154329.322500", "154331.330000", "154333.337500", "154335.347500", "154337.355000", "154339.362500", "154341.370000", "154343.380000", "154345.387500", "154347.395000", "154349.402500", "154351.410000", "154353.420000", "154355.427500", "154357.435000", "154359.442500", "154401.450000", "154403.460000", "154405.467500", "154407.475000", "154409.482500", "154411.490000", "154413.500000", "154415.507500", "154417.515000", "154419.522500", "154421.532500", "154423.540000", "154425.547500", "154427.555000", "154429.562500", "154431.572500", "154433.580000", "154435.587500", "154437.595000", "154439.602500", "154441.612500", "154443.620000", "154445.627500", "154447.635000", "154449.645000", "154451.652500", "154453.660000", "154455.667500", "154457.675000", "154459.685000", "154501.692500", "154503.700000", "154505.707500", "154507.715000"],
      "ContentTime": ["153726.593000", "153726.593000", "153726.593000", "153726.593000", "153726.593000", "153726.593000", "153726.609000", "153726.609000", "153726.609000", "153726.609000", "153806.578000", "153806.593000", "153806.593000", "153806.593000", "153806.593000", "153806.593000", "153806.593000", "153806.593000", "153806.609000", "153806.609000", "153806.609000", "153806.609000", "153806.609000", "153806.609000", "153806.609000", "153806.625000", "153806.625000", "153806.625000", "153806.625000", "153806.625000", "153846.578000", "153846.593000", "153846.593000", "153846.593000", "153846.593000", "153846.593000", "153846.593000", "153846.593000", "153846.609000", "153846.609000", "153846.609000", "153846.609000", "153846.609000", "153846.609000", "153846.609000", "153846.609000", "153846.625000", "153846.625000", "153846.625000", "153846.625000", "153926.578000", "153926.593000", "153926.593000", "153926.593000", "153926.593000", "153926.593000", "153926.593000", "153926.593000", "153926.609000", "153926.609000", "153926.609000", "153926.609000", "153926.609000", "153926.609000", "153926.625000", "153926.625000", "153926.625000", "153926.625000", "153926.625000", "153926.625000", "154006.578000", "154006.593000", "154006.593000", "154006.593000", "154006.593000", "154006.593000", "154006.593000", "154006.593000", "154006.609000", "154006.609000", "154006.609000", "154006.609000", "154006.609000", "154006.609000", "154006.609000", "154006.625000", "154006.625000", "154006.625000", "154006.625000", "154006.625000", "154046.578000", "154046.593000", "154046.593000", "154046.593000", "154046.593000", "154046.593000", "154046.593000", "154046.593000", "154046.609000", "154046.609000", "154046.609000", "154046.609000", "154046.609000", "154046.609000", "154046.609000", "154046.609000", "154046.625000", "154046.625000", "154046.625000", "154046.625000", "154126.578000", "154126.593000", "154126.593000", "154126.593000", "154126.593000", "154126.593000", "154126.593000", "154126.593000", "154126.609000", "154126.609000", "154126.609000", "154126.609000", "154126.609000", "154126.609000", "154126.609000", "154126.609000", "154126.625000", "154126.625000", "154126.625000", "154126.625000", "154206.578000", "154206.593000", "154206.593000", "154206.593000", "154206.593000", "154206.593000", "154206.593000", "154206.593000", "154206.609000", "154206.609000", "154206.609000", "154206.609000", "154206.609000", "154206.609000", "154206.609000", "154206.609000", "154206.625000", "154206.625000", "154206.625000", "154206.625000", "154246.578000", "154246.593000", "154246.593000", "154246.593000", "154246.593000", "154246.593000", "154246.593000", "154246.593000", "154246.609000", "154246.609000", "154246.609000", "154246.609000", "154246.609000", "154246.625000", "154246.625000", "154246.625000", "154246.625000", "154246.625000", "154246.625000", "154246.640000", "154326.578000", "154326.593000", "154326.593000", "154326.593000", "154326.593000", "154326.593000", "154326.593000", "154326.593000", "154326.609000", "154326.609000", "154326.609000", "154326.609000", "154326.609000", "154326.609000", "154326.609000", "154326.609000", "154326.625000", "154326.625000", "154326.625000", "154326.625000", "154406.578000", "154406.593000", "154406.593000", "154406.593000", "154406.593000", "154406.593000", "154406.593000", "154406.593000", "154406.609000", "154406.609000", "154406.609000", "154406.609000", "154406.609000", "154406.609000", "154406.609000", "154406.625000", "154406.625000", "154406.625000", "154406.625000", "154406.625000", "154446.578000", "154446.593000", "154446.593000", "154446.593000", "154446.593000", "154446.593000", "154446.593000", "154446.593000", "154446.609000", "154446.609000", "154446.609000", "154446.609000", "154446.609000", "154446.609000", "154446.609000", "154446.625000", "154446.625000", "154446.625000", "154446.625000", "154446.625000", "154505.937000", "154505.937000", "154505.937000", "154505.953000", "154505.953000", "154505.953000", "154505.953000", "154505.953000", "154505.953000", "154505.953000"],
      "InstanceCreationTime": ["153726.593000", "153726.593000", "153726.593000", "153726.593000", "153726.593000", "153726.593000", "153726.609000", "153726.609000", "153726.609000", "153726.609000", "153806.578000", "153806.593000", "153806.593000", "153806.593000", "153806.593000", "153806.593000", "153806.593000", "153806.593000", "153806.609000", "153806.609000", "153806.609000", "153806.609000", "153806.609000", "153806.609000", "153806.609000", "153806.625000", "153806.625000", "153806.625000", "153806.625000", "153806.625000", "153846.578000", "153846.593000", "153846.593000", "153846.593000", "153846.593000", "153846.593000", "153846.593000", "153846.593000", "153846.609000", "153846.609000", "153846.609000", "153846.609000", "153846.609000", "153846.609000", "153846.609000", "153846.609000", "153846.625000", "153846.625000", "153846.625000", "153846.625000", "153926.578000", "153926.593000", "153926.593000", "153926.593000", "153926.593000", "153926.593000", "153926.593000", "153926.593000", "153926.609000", "153926.609000", "153926.609000", "153926.609000", "153926.609000", "153926.609000", "153926.625000", "153926.625000", "153926.625000", "153926.625000", "153926.625000", "153926.625000", "154006.578000", "154006.593000", "154006.593000", "154006.593000", "154006.593000", "154006.593000", "154006.593000", "154006.593000", "154006.609000", "154006.609000", "154006.609000", "154006.609000", "154006.609000", "154006.609000", "154006.609000", "154006.625000", "154006.625000", "154006.625000", "154006.625000", "154006.625000", "154046.578000", "154046.593000", "154046.593000", "154046.593000", "154046.593000", "154046.593000", "154046.593000", "154046.593000", "154046.609000", "154046.609000", "154046.609000", "154046.609000", "154046.609000", "154046.609000", "154046.609000", "154046.609000", "154046.625000", "154046.625000", "154046.625000", "154046.625000", "154126.578000", "154126.593000", "154126.593000", "154126.593000", "154126.593000", "154126.593000", "154126.593000", "154126.593000", "154126.609000", "154126.609000", "154126.609000", "154126.609000", "154126.609000", "154126.609000", "154126.609000", "154126.609000", "154126.625000", "154126.625000", "154126.625000", "154126.625000", "154206.578000", "154206.593000", "154206.593000", "154206.593000", "154206.593000", "154206.593000", "154206.593000", "154206.593000", "154206.609000", "154206.609000", "154206.609000", "154206.609000", "154206.609000", "154206.609000", "154206.609000", "154206.609000", "154206.625000", "154206.625000", "154206.625000", "154206.625000", "154246.578000", "154246.593000", "154246.593000", "154246.593000", "154246.593000", "154246.593000", "154246.593000", "154246.593000", "154246.609000", "154246.609000", "154246.609000", "154246.609000", "154246.609000", "154246.625000", "154246.625000", "154246.625000", "154246.625000", "154246.625000", "154246.625000", "154246.640000", "154326.578000", "154326.593000", "154326.593000", "154326.593000", "154326.593000", "154326.593000", "154326.593000", "154326.593000", "154326.609000", "154326.609000", "154326.609000", "154326.609000", "154326.609000", "154326.609000", "154326.609000", "154326.609000", "154326.625000", "154326.625000", "154326.625000", "154326.625000", "154406.578000", "154406.593000", "154406.593000", "154406.593000", "154406.593000", "154406.593000", "154406.593000", "154406.593000", "154406.609000", "154406.609000", "154406.609000", "154406.609000", "154406.609000", "154406.609000", "154406.609000", "154406.625000", "154406.625000", "154406.625000", "154406.625000", "154406.625000", "154446.578000", "154446.593000", "154446.593000", "154446.593000", "154446.593000", "154446.593000", "154446.593000", "154446.593000", "154446.609000", "154446.609000", "154446.609000", "154446.609000", "154446.609000", "154446.609000", "154446.609000", "154446.625000", "154446.625000", "154446.625000", "154446.625000", "154446.625000", "154505.937000", "154505.937000", "154505.937000", "154505.953000", "154505.953000", "154505.953000", "154505.953000", "154505.953000", "154505.953000", "154505.953000"],
      "InstanceNumber": [1, 2, 3, 4, 5, 6, 7, 8, 9, 10, 11, 12, 13, 14, 15, 16, 17, 18, 19, 20, 21, 22, 23, 24, 25, 26, 27, 28, 29, 30, 31, 32, 33, 34, 35, 36, 37, 38, 39, 40, 41, 42, 43, 44, 45, 46, 47, 48, 49, 50, 51, 52, 53, 54, 55, 56, 57, 58, 59, 60, 61, 62, 63, 64, 65, 66, 67, 68, 69, 70, 71, 72, 73, 74, 75, 76, 77, 78, 79, 80, 81, 82, 83, 84, 85, 86, 87, 88, 89, 90, 91, 92, 93, 94, 95, 96, 97, 98, 99, 100, 101, 102, 103, 104, 105, 106, 107, 108, 109, 110, 111, 112, 113, 114, 115, 116, 117, 118, 119, 120, 121, 122, 123, 124, 125, 126, 127, 128, 129, 130, 131, 132, 133, 134, 135, 136, 137, 138, 139, 140, 141, 142, 143, 144, 145, 146, 147, 148, 149, 150, 151, 152, 153, 154, 155, 156, 157, 158, 159, 160, 161, 162, 163, 164, 165, 166, 167, 168, 169, 170, 171, 172, 173, 174, 175, 176, 177, 178, 179, 180, 181, 182, 183, 184, 185, 186, 187, 188, 189, 190, 191, 192, 193, 194, 195, 196, 197, 198, 199, 200, 201, 202, 203, 204, 205, 206, 207, 208, 209, 210, 211, 212, 213, 214, 215, 216, 217, 218, 219, 220, 221, 222, 223, 224, 225, 226, 227, 228, 229, 230, 231, 232, 233, 234, 235, 236, 237, 238, 239, 240],
      "LargestImagePixelValue": [1732, 1637, 1611, 1612, 1570, 1585, 1559, 1544, 1584, 1576, 1572, 1588, 1565, 1625, 1560, 1565, 1591, 1573, 1565, 1549, 1555, 1576, 1563, 1562, 1588, 1560, 1586, 1566, 1569, 1574, 1599, 1575, 1535, 1564, 1582, 1569, 1590, 1583, 1565, 1560, 1559, 1566, 1542, 1577, 1582, 1580, 1609, 1616, 1575, 1566, 1562, 1579, 1600, 1583, 1578, 1574, 1605, 1606, 1605, 1588, 1564, 1548, 1558, 1546, 1581, 1586, 1603, 1578, 1599, 1590, 1588, 1570, 1585, 1578, 1567, 1615, 1626, 1580, 1564, 1542, 1556, 1526, 1611, 1538, 1549, 1568, 1522, 1560, 1542, 1545, 1564, 1554, 1567, 1549, 1559, 1521, 1546, 1558, 1552, 1556, 1567, 1549, 1550, 1608, 1539, 1542, 1552, 1552, 1553, 1565, 1588, 1589, 1580, 1610, 1541, 1548, 1552, 1568, 1552, 1549, 1595, 1522, 1528, 1547, 1553, 1555, 1530, 1547, 1562, 1564, 1550, 1529, 1575, 1596, 1573, 1556, 1591, 1513, 1525, 1531, 1539, 1570, 1564, 1575, 1537, 1534, 1530, 1544, 1531, 1583, 1591, 1554, 1594, 1580, 1582, 1591, 1574, 1532, 1560, 1586, 1558, 1558, 1548, 1558, 1653, 1855, 1611, 1563, 1585, 1592, 1616, 1628, 1638, 1622, 1594, 1601, 1738, 1736, 1682, 1619, 1590, 1553, 1600, 1616, 1650, 1651, 1631, 1639, 1707, 1717, 1651, 1619, 1579, 1571, 1588, 1624, 1617, 1625, 1625, 1594, 1611, 1590, 1615, 1643, 1618, 1571, 1593, 1614, 1621, 1594, 1625, 1591, 1576, 1592, 1626, 1623, 1664, 1692, 1624, 1695, 1708, 1658, 1652, 1615, 1628, 1614, 1640, 1701, 1632, 1608, 1594, 1581, 1715, 1726, 1635, 1596, 1602, 1630, 1598, 1681],
      "WindowCenter": [781.0, 776.0, 773.0, 773.0, 772.0, 770.0, 771.0, 771.0, 771.0, 775.0, 774.0, 773.0, 772.0, 773.0, 772.0, 771.0, 772.0, 771.0, 771.0, 773.0, 774.0, 773.0, 773.0, 776.0, 776.0, 773.0, 774.0, 774.0, 774.0, 775.0, 776.0, 775.0, 775.0, 776.0, 776.0, 775.0, 774.0, 774.0, 775.0, 773.0, 773.0, 774.0, 774.0, 775.0, 776.0, 777.0, 775.0, 773.0, 773.0, 775.0, 777.0, 774.0, 774.0, 772.0, 772.0, 774.0, 776.0, 781.0, 780.0, 777.0, 774.0, 772.0, 773.0, 772.0, 774.0, 776.0, 775.0, 777.0, 777.0, 776.0, 776.0, 776.0, 775.0, 777.0, 778.0, 778.0, 778.0, 778.0, 778.0, 774.0, 773.0, 774.0, 777.0, 775.0, 775.0, 775.0, 773.0, 774.0, 776.0, 776.0, 779.0, 779.0, 779.0, 776.0, 775.0, 773.0, 776.0, 777.0, 776.0, 777.0, 777.0, 776.0, 778.0, 777.0, 777.0, 777.0, 777.0, 778.0, 778.0, 778.0, 779.0, 782.0, 781.0, 777.0, 776.0, 776.0, 776.0, 779.0, 779.0, 779.0, 777.0, 776.0, 775.0, 775.0, 777.0, 777.0, 777.0, 779.0, 780.0, 780.0, 778.0, 776.0, 778.0, 778.0, 779.0, 777.0, 776.0, 776.0, 776.0, 776.0, 779.0, 780.0, 780.0, 778.0, 775.0, 775.0, 775.0, 775.0, 776.0, 777.0, 777.0, 776.0, 778.0, 778.0, 782.0, 781.0, 777.0, 776.0, 777.0, 778.0, 778.0, 778.0, 778.0, 778.0, 782.0, 784.0, 779.0, 776.0, 778.0, 779.0, 780.0, 780.0, 779.0, 778.0, 779.0, 780.0, 788.0, 791.0, 782.0, 781.0, 781.0, 777.0, 774.0, 774.0, 774.0, 777.0, 780.0, 780.0, 781.0, 781.0, 782.0, 782.0, 780.0, 780.0, 782.0, 781.0, 780.0, 779.0, 779.0, 780.0, 784.0, 783.0, 779.0, 779.0, 778.0, 779.0, 781.0, 782.0, 784.0, 784.0, 782.0, 780.0, 779.0, 779.0, 780.0, 780.0, 780.0, 780.0, 780.0, 781.0, 783.0, 782.0, 781.0, 781.0, 783.0, 784.0, 782.0, 782.0, 782.0, 780.0, 779.0, 779.0, 781.0, 781.0, 782.0, 784.0, 783.0, 781.0, 780.0, 787.0],
      "WindowWidth": [1647.0, 1632.0, 1625.0, 1625.0, 1622.0, 1619.0, 1622.0, 1620.0, 1622.0, 1630.0, 1630.0, 1627.0, 1624.0, 1626.0, 1624.0, 1621.0, 1624.0, 1621.0, 1621.0, 1627.0, 1628.0, 1625.0, 1627.0, 1632.0, 1633.0, 1624.0, 1627.0, 1628.0, 1627.0, 1631.0, 1634.0, 1631.0, 1630.0, 1633.0, 1634.0, 1631.0, 1628.0, 1629.0, 1631.0, 1624.0, 1626.0, 1629.0, 1628.0, 1629.0, 1632.0, 1635.0, 1630.0, 1627.0, 1627.0, 1630.0, 1636.0, 1628.0, 1628.0, 1622.0, 1624.0, 1628.0, 1632.0, 1645.0, 1642.0, 1635.0, 1627.0, 1622.0, 1625.0, 1622.0, 1628.0, 1633.0, 1631.0, 1634.0, 1636.0, 1633.0, 1633.0, 1632.0, 1631.0, 1636.0, 1638.0, 1638.0, 1638.0, 1638.0, 1637.0, 1626.0, 1626.0, 1626.0, 1638.0, 1630.0, 1630.0, 1631.0, 1624.0, 1629.0, 1634.0, 1634.0, 1640.0, 1641.0, 1641.0, 1633.0, 1630.0, 1626.0, 1633.0, 1634.0, 1633.0, 1636.0, 1634.0, 1633.0, 1637.0, 1634.0, 1635.0, 1635.0, 1635.0, 1638.0, 1638.0, 1638.0, 1641.0, 1647.0, 1646.0, 1636.0, 1634.0, 1632.0, 1632.0, 1639.0, 1641.0, 1640.0, 1635.0, 1633.0, 1631.0, 1632.0, 1636.0, 1635.0, 1636.0, 1641.0, 1643.0, 1642.0, 1638.0, 1632.0, 1640.0, 1640.0, 1642.0, 1634.0, 1632.0, 1633.0, 1633.0, 1634.0, 1641.0, 1644.0, 1644.0, 1637.0, 1629.0, 1631.0, 1632.0, 1631.0, 1633.0, 1637.0, 1636.0, 1634.0, 1639.0, 1640.0, 1648.0, 1645.0, 1634.0, 1633.0, 1636.0, 1637.0, 1637.0, 1637.0, 1639.0, 1638.0, 1648.0, 1652.0, 1640.0, 1633.0, 1637.0, 1639.0, 1642.0, 1643.0, 1641.0, 1637.0, 1639.0, 1643.0, 1660.0, 1670.0, 1649.0, 1648.0, 1645.0, 1634.0, 1628.0, 1629.0, 1628.0, 1637.0, 1642.0, 1643.0, 1646.0, 1646.0, 1647.0, 1647.0, 1642.0, 1642.0, 1646.0, 1644.0, 1644.0, 1639.0, 1639.0, 1644.0, 1652.0, 1650.0, 1640.0, 1640.0, 1638.0, 1640.0, 1646.0, 1647.0, 1653.0, 1652.0, 1647.0, 1642.0, 1639.0, 1640.0, 1643.0, 1643.0, 1642.0, 1643.0, 1643.0, 1644.0, 1650.0, 1648.0, 1646.0, 1644.0, 1652.0, 1652.0, 1646.0, 1648.0, 1648.0, 1642.0, 1640.0, 1640.0, 1644.0, 1646.0, 1649.0, 1651.0, 1649.0, 1645.0, 1642.0, 1660.0]
    },
    "slices": {}
  }
}