{
  "AcquisitionMatrixPE": 68,
  "AcquisitionNumber": 1,
  "AcquisitionTime": "16:05:45.050000",
  "BandwidthPerPixelPhaseEncode": 31.289,
  "BaseResolution": 68,
  "CoilString": "C:HEA;HEP",
  "ConversionSoftware": "dcm2niix",
  "ConversionSoftwareVersion": "v1.0.20190902",
  "DerivedVendorReportedEchoSpacing": 0.000470002,
  "DeviceSerialNumber": "35450",
  "DwellTime": 3e-06,
  "EchoTime": 0.023,
  "EffectiveEchoSpacing": 0.000470002,
  "FlipAngle": 76,
  "ImageOrientationPatientDICOM": [0.999976, 0.000814536, 0.00693358, -2.7569e-08, 0.993171, -0.116671],
  "ImageType": [
    "ORIGINAL",
    "PRIMARY",
    "M",
    "ND",
    "MOSAIC"
],
  "ImagingFrequency": 123.219,
  "InPlanePhaseEncodingDirectionDICOM": "COL",
  "InstitutionAddress": "Univeristy_Ave._197_Newark_North_East_US_07102-1814",
  "InstitutionName": "RUBIC",
  "InstitutionalDepartmentName": "Department",
  "MRAcquisitionType": "2D",
  "MagneticFieldStrength": 3,
  "Manufacturer": "Siemens",
  "ManufacturersModelName": "TrioTim",
  "Modality": "MR",
  "PartialFourier": 1,
  "PatientPosition": "HFS",
  "PercentPhaseFOV": 100,
  "PhaseEncodingDirection": "j-",
  "PhaseEncodingSteps": 68,
  "PhaseResolution": 1,
  "PixelBandwidth": 2451,
  "ProcedureStepDescription": "Krekelberg_David",
  "ProtocolName": "ep2d_bold_RestEPI_3",
  "PulseSequenceDetails": "%SiemensSeq%_ep2d_bold",
  "ReceiveCoilName": "HeadMatrix",
  "ReconMatrixPE": 68,
  "RepetitionTime": 2,
  "SAR": 0.18417,
  "ScanOptions": "FS",
  "ScanningSequence": "EP",
  "SequenceName": "_epfid2d1_68",
  "SequenceVariant": "SK",
  "SeriesDescription": "ep2d_bold_RestEPI_3",
  "SeriesNumber": 10,
  "ShimSetting": [1974, -656, -7530, 714, 83, -34, -503, -71],
  "SliceThickness": 2.5,
  "SliceTiming": [1.9525, 1.8975, 1.84, 1.785, 1.73, 1.6725, 1.6175, 1.5625, 1.5075, 1.45, 1.395, 1.34, 1.2825, 1.2275, 1.1725, 1.115, 1.06, 1.005, 0.9475, 0.8925, 0.8375, 0.7825, 0.725, 0.67, 0.615, 0.5575, 0.5025, 0.4475, 0.39, 0.335, 0.28, 0.2225, 0.1675, 0.1125, 0.0575, 0],
  "SoftwareVersions": "syngo_MR_B19",
  "SpacingBetweenSlices": 3,
  "StationName": "MRC35450",
  "TaskName": "rest",
  "TotalReadoutTime": 0.0314901,
  "TxRefAmp": 347.536,
  "dcmmeta_affine": [
    [-2.999926805496216, -8.270708917734737e-08, 0.0209437794983387, 102.98693084716797],
    [-0.0024436083622276783, 2.9795119762420654, -0.3500036895275116, -75.16548919677734],
    [0.020800737664103508, 0.3500122129917145, 2.9794392585754395, -48.12656784057617],
    [0.0, 0.0, 0.0, 1.0]
],
  "dcmmeta_reorient_transform": [
    [0.0, -1.0, 0.0, 67.0],
    [1.0, 0.0, 0.0, 0.0],
    [0.0, 0.0, 1.0, 0.0],
    [0.0, 0.0, 0.0, 1.0]
],
  "dcmmeta_shape": [68, 68, 36, 240],
  "dcmmeta_slice_dim": 2,
  "dcmmeta_version": 0.6,
  "global": {
    "const": {
      "AcquisitionMatrix": [68, 0, 0, 68],
      "AngioFlag": "N",
      "BitsAllocated": 16,
      "BitsStored": 12,
      "Columns": 408,
      "EchoNumbers": 1,
      "EchoTime": 23.0,
      "EchoTrainLength": 1,
      "FlipAngle": 76.0,
      "HighBit": 11,
      "ImageOrientationPatient": [0.99997563070726, 0.0008145361468, 0.00693357934158, -2.756903e-08, 0.99317064931944, -0.116670738964],
      "ImagePositionPatient": [-612.97448518343, -631.39425470285, 31.290203242885],
      "ImageType": [
        "ORIGINAL",
        "PRIMARY",
        "M",
        "ND",
        "MOSAIC"
],
      "ImagedNucleus": "1H",
      "ImagingFrequency": 123.218564,
      "InPlanePhaseEncodingDirection": "COL",
      "MRAcquisitionType": "2D",
      "MagneticFieldStrength": 3.0,
      "Manufacturer": "SIEMENS",
      "ManufacturerModelName": "TrioTim",
      "Modality": "MR",
      "NumberOfAverages": 1.0,
      "NumberOfPhaseEncodingSteps": 68,
      "PercentPhaseFieldOfView": 100.0,
      "PercentSampling": 100.0,
      "PerformedProcedureStepStartTime": "150404.187000",
      "PhotometricInterpretation": "MONOCHROME2",
      "PixelBandwidth": 2451.0,
      "PixelRepresentation": 0,
      "PixelSpacing": [3.0, 3.0],
      "ProtocolName": "ep2d_bold_RestEPI_3",
      "RepetitionTime": 2000.0,
      "Rows": 408,
      "SAR": 0.18417030687757,
      "SamplesPerPixel": 1,
      "ScanOptions": "FS",
      "ScanningSequence": "EP",
      "SequenceName": "*epfid2d1_68",
      "SequenceVariant": "SK",
      "SeriesDescription": "ep2d_bold_RestEPI_3",
      "SeriesNumber": 10,
      "SeriesTime": "160626.593000",
      "SliceLocation": -38.308350549893,
      "SliceThickness": 2.5,
      "SmallestImagePixelValue": 0,
      "SoftwareVersions": "syngo MR B19",
      "SpacingBetweenSlices": 2.9999999832036,
      "SpecificCharacterSet": "ISO_IR 100",
      "StudyID": "1",
      "StudyTime": "150404.140000",
      "TransmitCoilName": "Body",
      "VariableFlipAngleFlag": "N",
      "WindowCenterWidthExplanation": "Algo1",
      "dBdt": 0.0},
    "slices": {}
  },
  "time": {
    "samples": {
      "AcquisitionNumber": [1, 2, 3, 4, 5, 6, 7, 8, 9, 10, 11, 12, 13, 14, 15, 16, 17, 18, 19, 20, 21, 22, 23, 24, 25, 26, 27, 28, 29, 30, 31, 32, 33, 34, 35, 36, 37, 38, 39, 40, 41, 42, 43, 44, 45, 46, 47, 48, 49, 50, 51, 52, 53, 54, 55, 56, 57, 58, 59, 60, 61, 62, 63, 64, 65, 66, 67, 68, 69, 70, 71, 72, 73, 74, 75, 76, 77, 78, 79, 80, 81, 82, 83, 84, 85, 86, 87, 88, 89, 90, 91, 92, 93, 94, 95, 96, 97, 98, 99, 100, 101, 102, 103, 104, 105, 106, 107, 108, 109, 110, 111, 112, 113, 114, 115, 116, 117, 118, 119, 120, 121, 122, 123, 124, 125, 126, 127, 128, 129, 130, 131, 132, 133, 134, 135, 136, 137, 138, 139, 140, 141, 142, 143, 144, 145, 146, 147, 148, 149, 150, 151, 152, 153, 154, 155, 156, 157, 158, 159, 160, 161, 162, 163, 164, 165, 166, 167, 168, 169, 170, 171, 172, 173, 174, 175, 176, 177, 178, 179, 180, 181, 182, 183, 184, 185, 186, 187, 188, 189, 190, 191, 192, 193, 194, 195, 196, 197, 198, 199, 200, 201, 202, 203, 204, 205, 206, 207, 208, 209, 210, 211, 212, 213, 214, 215, 216, 217, 218, 219, 220, 221, 222, 223, 224, 225, 226, 227, 228, 229, 230, 231, 232, 233, 234, 235, 236, 237, 238, 239, 240],
      "AcquisitionTime": ["160545.050000", "160547.057500", "160549.065000", "160551.075000", "160553.082500", "160555.090000", "160557.097500", "160559.105000", "160601.115000", "160603.122500", "160605.130000", "160607.137500", "160609.147500", "160611.155000", "160613.162500", "160615.170000", "160617.177500", "160619.187500", "160621.195000", "160623.202500", "160625.210000", "160627.217500", "160629.227500", "160631.235000", "160633.242500", "160635.250000", "160637.257500", "160639.267500", "160641.275000", "160643.282500", "160645.290000", "160647.300000", "160649.307500", "160651.315000", "160653.322500", "160655.330000", "160657.340000", "160659.347500", "160701.355000", "160703.362500", "160705.370000", "160707.380000", "160709.387500", "160711.395000", "160713.402500", "160715.412500", "160717.420000", "160719.427500", "160721.435000", "160723.442500", "160725.452500", "160727.460000", "160729.467500", "160731.475000", "160733.482500", "160735.492500", "160737.500000", "160739.507500", "160741.515000", "160743.525000", "160745.532500", "160747.540000", "160749.547500", "160751.555000", "160753.565000", "160755.572500", "160757.580000", "160759.587500", "160801.595000", "160803.605000", "160805.612500", "160807.620000", "160809.627500", "160811.635000", "160813.645000", "160815.652500", "160817.660000", "160819.667500", "160821.677500", "160823.685000", "160825.692500", "160827.700000", "160829.707500", "160831.717500", "160833.725000", "160835.732500", "160837.740000", "160839.747500", "160841.757500", "160843.765000", "160845.772500", "160847.780000", "160849.790000", "160851.797500", "160853.805000", "160855.812500", "160857.820000", "160859.830000", "160901.837500", "160903.845000", "160905.852500", "160907.860000", "160909.870000", "160911.877500", "160913.885000", "160915.892500", "160917.902500", "160919.910000", "160921.917500", "160923.925000", "160925.932500", "160927.942500", "160929.950000", "160931.957500", "160933.965000", "160935.972500", "160937.982500", "160939.990000", "160941.997500", "160944.005000", "160946.012500", "160948.022500", "160950.030000", "160952.037500", "160954.045000", "160956.055000", "160958.062500", "161000.070000", "161002.077500", "161004.085000", "161006.095000", "161008.102500", "161010.110000", "161012.117500", "161014.125000", "161016.135000", "161018.142500", "161020.150000", "161022.157500", "161024.167500", "161026.175000", "161028.182500", "161030.190000", "161032.197500", "161034.207500", "161036.215000", "161038.222500", "161040.230000", "161042.237500", "161044.247500", "161046.255000", "161048.262500", "161050.270000", "161052.280000", "161054.287500", "161056.295000", "161058.302500", "161100.310000", "161102.320000", "161104.327500", "161106.335000", "161108.342500", "161110.350000", "161112.360000", "161114.367500", "161116.375000", "161118.382500", "161120.390000", "161122.400000", "161124.407500", "161126.415000", "161128.422500", "161130.432500", "161132.440000", "161134.447500", "161136.455000", "161138.462500", "161140.472500", "161142.480000", "161144.487500", "161146.495000", "161148.502500", "161150.512500", "161152.520000", "161154.527500", "161156.535000", "161158.545000", "161200.552500", "161202.560000", "161204.567500", "161206.575000", "161208.585000", "161210.592500", "161212.600000", "161214.607500", "161216.615000", "161218.625000", "161220.632500", "161222.640000", "161224.647500", "161226.657500", "161228.665000", "161230.672500", "161232.680000", "161234.687500", "161236.697500", "161238.705000", "161240.712500", "161242.720000", "161244.727500", "161246.737500", "161248.745000", "161250.752500", "161252.760000", "161254.770000", "161256.777500", "161258.785000", "161300.792500", "161302.800000", "161304.810000", "161306.817500", "161308.825000", "161310.832500", "161312.840000", "161314.850000", "161316.857500", "161318.865000", "161320.872500", "161322.880000", "161324.890000", "161326.897500", "161328.905000", "161330.912500", "161332.922500", "161334.930000", "161336.937500", "161338.945000", "161340.952500", "161342.962500", "161344.970000"],
      "ContentTime": ["160626.609000", "160626.609000", "160626.609000", "160626.609000", "160626.609000", "160626.609000", "160626.609000", "160626.625000", "160626.625000", "160626.625000", "160626.625000", "160626.625000", "160626.625000", "160626.625000", "160626.640000", "160626.640000", "160626.640000", "160626.640000", "160626.640000", "160626.640000", "160626.640000", "160706.578000", "160706.593000", "160706.593000", "160706.593000", "160706.593000", "160706.593000", "160706.593000", "160706.593000", "160706.609000", "160706.609000", "160706.609000", "160706.609000", "160706.609000", "160706.609000", "160706.609000", "160706.625000", "160706.625000", "160706.625000", "160706.625000", "160706.625000", "160746.578000", "160746.593000", "160746.593000", "160746.593000", "160746.593000", "160746.593000", "160746.593000", "160746.593000", "160746.609000", "160746.609000", "160746.609000", "160746.609000", "160746.609000", "160746.609000", "160746.609000", "160746.625000", "160746.625000", "160746.625000", "160746.625000", "160746.625000", "160826.578000", "160826.593000", "160826.593000", "160826.593000", "160826.593000", "160826.593000", "160826.593000", "160826.593000", "160826.593000", "160826.609000", "160826.609000", "160826.609000", "160826.609000", "160826.609000", "160826.609000", "160826.609000", "160826.625000", "160826.625000", "160826.625000", "160826.625000", "160906.578000", "160906.593000", "160906.593000", "160906.593000", "160906.593000", "160906.593000", "160906.593000", "160906.593000", "160906.593000", "160906.609000", "160906.609000", "160906.609000", "160906.609000", "160906.609000", "160906.609000", "160906.609000", "160906.625000", "160906.625000", "160906.625000", "160906.625000", "160946.578000", "160946.593000", "160946.593000", "160946.593000", "160946.593000", "160946.593000", "160946.593000", "160946.593000", "160946.593000", "160946.609000", "160946.609000", "160946.609000", "160946.609000", "160946.609000", "160946.609000", "160946.609000", "160946.625000", "160946.625000", "160946.625000", "160946.625000", "161026.578000", "161026.593000", "161026.593000", "161026.593000", "161026.593000", "161026.593000", "161026.593000", "161026.593000", "161026.593000", "161026.609000", "161026.609000", "161026.609000", "161026.609000", "161026.609000", "161026.609000", "161026.625000", "161026.625000", "161026.625000", "161026.625000", "161026.625000", "161106.578000", "161106.593000", "161106.593000", "161106.593000", "161106.593000", "161106.593000", "161106.593000", "161106.593000", "161106.593000", "161106.609000", "161106.609000", "161106.609000", "161106.609000", "161106.609000", "161106.609000", "161106.609000", "161106.625000", "161106.625000", "161106.625000", "161106.625000", "161146.578000", "161146.593000", "161146.593000", "161146.593000", "161146.593000", "161146.593000", "161146.593000", "161146.609000", "161146.609000", "161146.609000", "161146.609000", "161146.609000", "161146.609000", "161146.625000", "161146.625000", "161146.625000", "161146.625000", "161146.625000", "161146.625000", "161146.640000", "161226.578000", "161226.593000", "161226.593000", "161226.593000", "161226.593000", "161226.593000", "161226.593000", "161226.593000", "161226.593000", "161226.609000", "161226.609000", "161226.609000", "161226.609000", "161226.609000", "161226.609000", "161226.609000", "161226.625000", "161226.625000", "161226.625000", "161226.625000", "161306.578000", "161306.593000", "161306.593000", "161306.593000", "161306.593000", "161306.593000", "161306.593000", "161306.609000", "161306.609000", "161306.609000", "161306.609000", "161306.609000", "161306.609000", "161306.609000", "161306.625000", "161306.625000", "161306.625000", "161306.625000", "161306.625000", "161306.625000", "161344.343000", "161344.343000", "161344.343000", "161344.343000", "161344.343000", "161344.359000", "161344.359000", "161344.359000", "161344.359000", "161344.359000", "161344.359000", "161344.359000", "161344.359000", "161344.375000", "161344.375000", "161344.375000", "161344.375000", "161344.375000", "161344.375000"],
      "InstanceCreationTime": ["160626.609000", "160626.609000", "160626.609000", "160626.609000", "160626.609000", "160626.609000", "160626.609000", "160626.625000", "160626.625000", "160626.625000", "160626.625000", "160626.625000", "160626.625000", "160626.625000", "160626.640000", "160626.640000", "160626.640000", "160626.640000", "160626.640000", "160626.640000", "160626.640000", "160706.578000", "160706.593000", "160706.593000", "160706.593000", "160706.593000", "160706.593000", "160706.593000", "160706.593000", "160706.609000", "160706.609000", "160706.609000", "160706.609000", "160706.609000", "160706.609000", "160706.609000", "160706.625000", "160706.625000", "160706.625000", "160706.625000", "160706.625000", "160746.578000", "160746.593000", "160746.593000", "160746.593000", "160746.593000", "160746.593000", "160746.593000", "160746.593000", "160746.609000", "160746.609000", "160746.609000", "160746.609000", "160746.609000", "160746.609000", "160746.609000", "160746.625000", "160746.625000", "160746.625000", "160746.625000", "160746.625000", "160826.578000", "160826.593000", "160826.593000", "160826.593000", "160826.593000", "160826.593000", "160826.593000", "160826.593000", "160826.593000", "160826.609000", "160826.609000", "160826.609000", "160826.609000", "160826.609000", "160826.609000", "160826.609000", "160826.625000", "160826.625000", "160826.625000", "160826.625000", "160906.578000", "160906.593000", "160906.593000", "160906.593000", "160906.593000", "160906.593000", "160906.593000", "160906.593000", "160906.593000", "160906.609000", "160906.609000", "160906.609000", "160906.609000", "160906.609000", "160906.609000", "160906.609000", "160906.625000", "160906.625000", "160906.625000", "160906.625000", "160946.578000", "160946.593000", "160946.593000", "160946.593000", "160946.593000", "160946.593000", "160946.593000", "160946.593000", "160946.593000", "160946.609000", "160946.609000", "160946.609000", "160946.609000", "160946.609000", "160946.609000", "160946.609000", "160946.625000", "160946.625000", "160946.625000", "160946.625000", "161026.578000", "161026.593000", "161026.593000", "161026.593000", "161026.593000", "161026.593000", "161026.593000", "161026.593000", "161026.593000", "161026.609000", "161026.609000", "161026.609000", "161026.609000", "161026.609000", "161026.609000", "161026.625000", "161026.625000", "161026.625000", "161026.625000", "161026.625000", "161106.578000", "161106.593000", "161106.593000", "161106.593000", "161106.593000", "161106.593000", "161106.593000", "161106.593000", "161106.593000", "161106.609000", "161106.609000", "161106.609000", "161106.609000", "161106.609000", "161106.609000", "161106.609000", "161106.625000", "161106.625000", "161106.625000", "161106.625000", "161146.578000", "161146.593000", "161146.593000", "161146.593000", "161146.593000", "161146.593000", "161146.593000", "161146.609000", "161146.609000", "161146.609000", "161146.609000", "161146.609000", "161146.609000", "161146.625000", "161146.625000", "161146.625000", "161146.625000", "161146.625000", "161146.625000", "161146.640000", "161226.578000", "161226.593000", "161226.593000", "161226.593000", "161226.593000", "161226.593000", "161226.593000", "161226.593000", "161226.593000", "161226.609000", "161226.609000", "161226.609000", "161226.609000", "161226.609000", "161226.609000", "161226.609000", "161226.625000", "161226.625000", "161226.625000", "161226.625000", "161306.578000", "161306.593000", "161306.593000", "161306.593000", "161306.593000", "161306.593000", "161306.593000", "161306.609000", "161306.609000", "161306.609000", "161306.609000", "161306.609000", "161306.609000", "161306.609000", "161306.625000", "161306.625000", "161306.625000", "161306.625000", "161306.625000", "161306.625000", "161344.343000", "161344.343000", "161344.343000", "161344.343000", "161344.343000", "161344.359000", "161344.359000", "161344.359000", "161344.359000", "161344.359000", "161344.359000", "161344.359000", "161344.359000", "161344.375000", "161344.375000", "161344.375000", "161344.375000", "161344.375000", "161344.375000"],
      "InstanceNumber": [1, 2, 3, 4, 5, 6, 7, 8, 9, 10, 11, 12, 13, 14, 15, 16, 17, 18, 19, 20, 21, 22, 23, 24, 25, 26, 27, 28, 29, 30, 31, 32, 33, 34, 35, 36, 37, 38, 39, 40, 41, 42, 43, 44, 45, 46, 47, 48, 49, 50, 51, 52, 53, 54, 55, 56, 57, 58, 59, 60, 61, 62, 63, 64, 65, 66, 67, 68, 69, 70, 71, 72, 73, 74, 75, 76, 77, 78, 79, 80, 81, 82, 83, 84, 85, 86, 87, 88, 89, 90, 91, 92, 93, 94, 95, 96, 97, 98, 99, 100, 101, 102, 103, 104, 105, 106, 107, 108, 109, 110, 111, 112, 113, 114, 115, 116, 117, 118, 119, 120, 121, 122, 123, 124, 125, 126, 127, 128, 129, 130, 131, 132, 133, 134, 135, 136, 137, 138, 139, 140, 141, 142, 143, 144, 145, 146, 147, 148, 149, 150, 151, 152, 153, 154, 155, 156, 157, 158, 159, 160, 161, 162, 163, 164, 165, 166, 167, 168, 169, 170, 171, 172, 173, 174, 175, 176, 177, 178, 179, 180, 181, 182, 183, 184, 185, 186, 187, 188, 189, 190, 191, 192, 193, 194, 195, 196, 197, 198, 199, 200, 201, 202, 203, 204, 205, 206, 207, 208, 209, 210, 211, 212, 213, 214, 215, 216, 217, 218, 219, 220, 221, 222, 223, 224, 225, 226, 227, 228, 229, 230, 231, 232, 233, 234, 235, 236, 237, 238, 239, 240],
      "LargestImagePixelValue": [1692, 1718, 1628, 1597, 1728, 1635, 1592, 1590, 1564, 1739, 1687, 1652, 1590, 1632, 1631, 1635, 1635, 1654, 1580, 1779, 1679, 1700, 1675, 1653, 1583, 1748, 1620, 1636, 1739, 1664, 1651, 1650, 1668, 1624, 1621, 1634, 1631, 1594, 1605, 1731, 1565, 1611, 1599, 1556, 1598, 1622, 1555, 1559, 1656, 1576, 1641, 1552, 1558, 1517, 1592, 1841, 1531, 1717, 1548, 1581, 1746, 1596, 1561, 1630, 1565, 1544, 1537, 1553, 1639, 1552, 1560, 1544, 1558, 1534, 1547, 1599, 1551, 1545, 1587, 1573, 1552, 1541, 1554, 1594, 1552, 1568, 1568, 1607, 1755, 1618, 1571, 1732, 1612, 1592, 1548, 1680, 1745, 1689, 1745, 1598, 1633, 1618, 1626, 1616, 1640, 1573, 1669, 1618, 1605, 1630, 1689, 1812, 1576, 1591, 1612, 1590, 1643, 1687, 1818, 1642, 1597, 1614, 1621, 1602, 1629, 1636, 1622, 1636, 1620, 1616, 1618, 1633, 1638, 1631, 1618, 1643, 1652, 1655, 1670, 1663, 1647, 1639, 1619, 1646, 1654, 1669, 1638, 1641, 1655, 1664, 1640, 1629, 1631, 1705, 1603, 1580, 1554, 1562, 1554, 1592, 1559, 1564, 1596, 1591, 1548, 1608, 1573, 1827, 1646, 1688, 1602, 1605, 1587, 1642, 1690, 1695, 1749, 1708, 1664, 1666, 1645, 1659, 1743, 1794, 1687, 1613, 1606, 1599, 1686, 1635, 1650, 1655, 1629, 1648, 1648, 1641, 1647, 1640, 1661, 1665, 1651, 1641, 1648, 1671, 1643, 1665, 1661, 1642, 1675, 1672, 1635, 1661, 1654, 1617, 1632, 1681, 1704, 1661, 1649, 1653, 1636, 1648, 1638, 1623, 1639, 1662, 1616, 1658, 1654, 1611, 1660, 1643, 1615, 1657, 1631, 1654, 1669, 1628, 1607, 1613],
      "WindowCenter": [779.0, 777.0, 775.0, 775.0, 777.0, 778.0, 774.0, 773.0, 771.0, 780.0, 787.0, 784.0, 775.0, 776.0, 776.0, 776.0, 775.0, 771.0, 768.0, 780.0, 770.0, 777.0, 773.0, 773.0, 771.0, 773.0, 773.0, 773.0, 773.0, 773.0, 772.0, 777.0, 778.0, 776.0, 776.0, 776.0, 775.0, 775.0, 775.0, 779.0, 775.0, 773.0, 773.0, 774.0, 773.0, 773.0, 775.0, 775.0, 776.0, 775.0, 777.0, 774.0, 774.0, 772.0, 773.0, 776.0, 774.0, 775.0, 774.0, 775.0, 776.0, 778.0, 778.0, 777.0, 774.0, 773.0, 774.0, 777.0, 778.0, 774.0, 774.0, 774.0, 774.0, 774.0, 774.0, 775.0, 776.0, 775.0, 776.0, 775.0, 776.0, 775.0, 776.0, 776.0, 776.0, 776.0, 775.0, 776.0, 777.0, 778.0, 778.0, 778.0, 777.0, 776.0, 775.0, 776.0, 775.0, 773.0, 774.0, 774.0, 777.0, 778.0, 778.0, 778.0, 777.0, 775.0, 775.0, 775.0, 775.0, 776.0, 779.0, 787.0, 779.0, 777.0, 778.0, 777.0, 777.0, 783.0, 782.0, 781.0, 779.0, 777.0, 775.0, 775.0, 778.0, 778.0, 776.0, 776.0, 776.0, 775.0, 777.0, 778.0, 779.0, 778.0, 778.0, 778.0, 778.0, 779.0, 781.0, 781.0, 777.0, 776.0, 775.0, 776.0, 778.0, 779.0, 778.0, 779.0, 781.0, 782.0, 778.0, 777.0, 775.0, 781.0, 779.0, 778.0, 777.0, 776.0, 779.0, 779.0, 778.0, 777.0, 778.0, 777.0, 780.0, 779.0, 778.0, 786.0, 792.0, 788.0, 780.0, 779.0, 779.0, 785.0, 785.0, 784.0, 782.0, 782.0, 778.0, 779.0, 778.0, 779.0, 784.0, 785.0, 780.0, 778.0, 777.0, 776.0, 782.0, 778.0, 778.0, 777.0, 777.0, 777.0, 777.0, 779.0, 781.0, 782.0, 779.0, 778.0, 777.0, 778.0, 778.0, 779.0, 778.0, 778.0, 779.0, 780.0, 780.0, 780.0, 779.0, 779.0, 779.0, 779.0, 779.0, 784.0, 784.0, 783.0, 778.0, 778.0, 778.0, 778.0, 779.0, 779.0, 779.0, 779.0, 779.0, 778.0, 779.0, 779.0, 779.0, 780.0, 780.0, 778.0, 779.0, 779.0, 783.0, 779.0, 777.0, 777.0],
      "WindowWidth": [1641.0, 1636.0, 1631.0, 1630.0, 1637.0, 1638.0, 1629.0, 1625.0, 1621.0, 1649.0, 1662.0, 1653.0, 1632.0, 1632.0, 1636.0, 1633.0, 1632.0, 1621.0, 1615.0, 1643.0, 1628.0, 1639.0, 1628.0, 1629.0, 1623.0, 1627.0, 1629.0, 1627.0, 1629.0, 1628.0, 1625.0, 1639.0, 1639.0, 1634.0, 1633.0, 1634.0, 1630.0, 1631.0, 1631.0, 1641.0, 1629.0, 1625.0, 1626.0, 1629.0, 1626.0, 1626.0, 1630.0, 1629.0, 1633.0, 1631.0, 1636.0, 1628.0, 1628.0, 1624.0, 1626.0, 1632.0, 1627.0, 1633.0, 1628.0, 1630.0, 1634.0, 1639.0, 1638.0, 1635.0, 1629.0, 1625.0, 1629.0, 1636.0, 1638.0, 1629.0, 1628.0, 1630.0, 1628.0, 1627.0, 1630.0, 1632.0, 1632.0, 1631.0, 1633.0, 1632.0, 1632.0, 1632.0, 1633.0, 1632.0, 1633.0, 1633.0, 1630.0, 1634.0, 1635.0, 1638.0, 1638.0, 1639.0, 1635.0, 1633.0, 1631.0, 1633.0, 1631.0, 1626.0, 1628.0, 1629.0, 1634.0, 1638.0, 1637.0, 1637.0, 1637.0, 1631.0, 1629.0, 1631.0, 1631.0, 1633.0, 1645.0, 1662.0, 1641.0, 1636.0, 1639.0, 1635.0, 1637.0, 1649.0, 1651.0, 1646.0, 1641.0, 1636.0, 1631.0, 1631.0, 1638.0, 1639.0, 1633.0, 1635.0, 1634.0, 1632.0, 1635.0, 1638.0, 1639.0, 1639.0, 1638.0, 1638.0, 1639.0, 1640.0, 1646.0, 1647.0, 1634.0, 1632.0, 1632.0, 1633.0, 1638.0, 1641.0, 1638.0, 1642.0, 1645.0, 1649.0, 1637.0, 1636.0, 1631.0, 1645.0, 1642.0, 1637.0, 1635.0, 1633.0, 1641.0, 1641.0, 1638.0, 1634.0, 1639.0, 1635.0, 1642.0, 1640.0, 1637.0, 1664.0, 1669.0, 1662.0, 1640.0, 1639.0, 1640.0, 1654.0, 1655.0, 1650.0, 1649.0, 1648.0, 1639.0, 1641.0, 1637.0, 1641.0, 1649.0, 1660.0, 1643.0, 1639.0, 1636.0, 1634.0, 1649.0, 1639.0, 1637.0, 1635.0, 1635.0, 1634.0, 1637.0, 1640.0, 1646.0, 1648.0, 1640.0, 1640.0, 1636.0, 1639.0, 1639.0, 1641.0, 1639.0, 1637.0, 1640.0, 1643.0, 1642.0, 1644.0, 1642.0, 1641.0, 1642.0, 1640.0, 1640.0, 1653.0, 1653.0, 1651.0, 1639.0, 1639.0, 1638.0, 1637.0, 1640.0, 1642.0, 1640.0, 1641.0, 1640.0, 1639.0, 1640.0, 1640.0, 1639.0, 1644.0, 1642.0, 1639.0, 1640.0, 1640.0, 1653.0, 1641.0, 1637.0, 1636.0]
    },
    "slices": {}
  }
}