{
  "AcquisitionMatrixPE": 68,
  "AcquisitionNumber": 1,
  "AcquisitionTime": "15:56:42.150000",
  "BandwidthPerPixelPhaseEncode": 31.289,
  "BaseResolution": 68,
  "CoilString": "C:HEA;HEP",
  "ConversionSoftware": "dcm2niix",
  "ConversionSoftwareVersion": "v1.0.20190902",
  "DerivedVendorReportedEchoSpacing": 0.000470002,
  "DeviceSerialNumber": "35450",
  "DwellTime": 3e-06,
  "EchoTime": 0.023,
  "EffectiveEchoSpacing": 0.000470002,
  "FlipAngle": 76,
  "ImageOrientationPatientDICOM": [0.999976, 0.000814536, 0.00693358, -2.7569e-08, 0.993171, -0.116671],
  "ImageType": [
    "ORIGINAL",
    "PRIMARY",
    "M",
    "ND",
    "MOSAIC"
],
  "ImagingFrequency": 123.219,
  "InPlanePhaseEncodingDirectionDICOM": "COL",
  "InstitutionAddress": "Univeristy_Ave._197_Newark_North_East_US_07102-1814",
  "InstitutionName": "RUBIC",
  "InstitutionalDepartmentName": "Department",
  "MRAcquisitionType": "2D",
  "MagneticFieldStrength": 3,
  "Manufacturer": "Siemens",
  "ManufacturersModelName": "TrioTim",
  "Modality": "MR",
  "PartialFourier": 1,
  "PatientPosition": "HFS",
  "PercentPhaseFOV": 100,
  "PhaseEncodingDirection": "j-",
  "PhaseEncodingSteps": 68,
  "PhaseResolution": 1,
  "PixelBandwidth": 2451,
  "ProcedureStepDescription": "Krekelberg_David",
  "ProtocolName": "ep2d_bold_RestEPI_2",
  "PulseSequenceDetails": "%SiemensSeq%_ep2d_bold",
  "ReceiveCoilName": "HeadMatrix",
  "ReconMatrixPE": 68,
  "RepetitionTime": 2,
  "SAR": 0.18417,
  "ScanOptions": "FS",
  "ScanningSequence": "EP",
  "SequenceName": "_epfid2d1_68",
  "SequenceVariant": "SK",
  "SeriesDescription": "ep2d_bold_RestEPI_2",
  "SeriesNumber": 9,
  "ShimSetting": [1974, -656, -7530, 714, 83, -34, -503, -71],
  "SliceThickness": 2.5,
  "SliceTiming": [1.9525, 1.8975, 1.84, 1.785, 1.73, 1.6725, 1.6175, 1.5625, 1.505, 1.45, 1.395, 1.34, 1.2825, 1.2275, 1.1725, 1.115, 1.06, 1.005, 0.9475, 0.8925, 0.8375, 0.78, 0.725, 0.67, 0.615, 0.5575, 0.5025, 0.4475, 0.39, 0.335, 0.28, 0.2225, 0.1675, 0.1125, 0.055, 0],
  "SoftwareVersions": "syngo_MR_B19",
  "SpacingBetweenSlices": 3,
  "StationName": "MRC35450",
  "TaskName": "rest",
  "TotalReadoutTime": 0.0314901,
  "TxRefAmp": 347.536,
  "dcmmeta_affine": [
    [-2.999926805496216, -8.270708917734737e-08, 0.0209437794983387, 102.98693084716797],
    [-0.0024436083622276783, 2.9795119762420654, -0.3500036895275116, -75.16548919677734],
    [0.020800737664103508, 0.3500122129917145, 2.9794392585754395, -48.12656784057617],
    [0.0, 0.0, 0.0, 1.0]
],
  "dcmmeta_reorient_transform": [
    [0.0, -1.0, 0.0, 67.0],
    [1.0, 0.0, 0.0, 0.0],
    [0.0, 0.0, 1.0, 0.0],
    [0.0, 0.0, 0.0, 1.0]
],
  "dcmmeta_shape": [68, 68, 36, 240],
  "dcmmeta_slice_dim": 2,
  "dcmmeta_version": 0.6,
  "global": {
    "const": {
      "AcquisitionMatrix": [68, 0, 0, 68],
      "AngioFlag": "N",
      "BitsAllocated": 16,
      "BitsStored": 12,
      "Columns": 408,
      "EchoNumbers": 1,
      "EchoTime": 23.0,
      "EchoTrainLength": 1,
      "FlipAngle": 76.0,
      "HighBit": 11,
      "ImageOrientationPatient": [0.99997563070726, 0.0008145361468, 0.00693357934158, -2.756903e-08, 0.99317064931944, -0.116670738964],
      "ImagePositionPatient": [-612.97448518343, -631.39425470285, 31.290203242885],
      "ImageType": [
        "ORIGINAL",
        "PRIMARY",
        "M",
        "ND",
        "MOSAIC"
],
      "ImagedNucleus": "1H",
      "ImagingFrequency": 123.21855,
      "InPlanePhaseEncodingDirection": "COL",
      "MRAcquisitionType": "2D",
      "MagneticFieldStrength": 3.0,
      "Manufacturer": "SIEMENS",
      "ManufacturerModelName": "TrioTim",
      "Modality": "MR",
      "NumberOfAverages": 1.0,
      "NumberOfPhaseEncodingSteps": 68,
      "PercentPhaseFieldOfView": 100.0,
      "PercentSampling": 100.0,
      "PerformedProcedureStepStartTime": "150404.187000",
      "PhotometricInterpretation": "MONOCHROME2",
      "PixelBandwidth": 2451.0,
      "PixelRepresentation": 0,
      "PixelSpacing": [3.0, 3.0],
      "ProtocolName": "ep2d_bold_RestEPI_2",
      "RepetitionTime": 2000.0,
      "Rows": 408,
      "SAR": 0.18417030687757,
      "SamplesPerPixel": 1,
      "ScanOptions": "FS",
      "ScanningSequence": "EP",
      "SequenceName": "*epfid2d1_68",
      "SequenceVariant": "SK",
      "SeriesDescription": "ep2d_bold_RestEPI_2",
      "SeriesNumber": 9,
      "SeriesTime": "155646.203000",
      "SliceLocation": -38.308350549893,
      "SliceThickness": 2.5,
      "SmallestImagePixelValue": 0,
      "SoftwareVersions": "syngo MR B19",
      "SpacingBetweenSlices": 2.9999999832036,
      "SpecificCharacterSet": "ISO_IR 100",
      "StudyID": "1",
      "StudyTime": "150404.140000",
      "TransmitCoilName": "Body",
      "VariableFlipAngleFlag": "N",
      "WindowCenterWidthExplanation": "Algo1",
      "dBdt": 0.0},
    "slices": {}
  },
  "time": {
    "samples": {
      "AcquisitionNumber": [1, 2, 3, 4, 5, 6, 7, 8, 9, 10, 11, 12, 13, 14, 15, 16, 17, 18, 19, 20, 21, 22, 23, 24, 25, 26, 27, 28, 29, 30, 31, 32, 33, 34, 35, 36, 37, 38, 39, 40, 41, 42, 43, 44, 45, 46, 47, 48, 49, 50, 51, 52, 53, 54, 55, 56, 57, 58, 59, 60, 61, 62, 63, 64, 65, 66, 67, 68, 69, 70, 71, 72, 73, 74, 75, 76, 77, 78, 79, 80, 81, 82, 83, 84, 85, 86, 87, 88, 89, 90, 91, 92, 93, 94, 95, 96, 97, 98, 99, 100, 101, 102, 103, 104, 105, 106, 107, 108, 109, 110, 111, 112, 113, 114, 115, 116, 117, 118, 119, 120, 121, 122, 123, 124, 125, 126, 127, 128, 129, 130, 131, 132, 133, 134, 135, 136, 137, 138, 139, 140, 141, 142, 143, 144, 145, 146, 147, 148, 149, 150, 151, 152, 153, 154, 155, 156, 157, 158, 159, 160, 161, 162, 163, 164, 165, 166, 167, 168, 169, 170, 171, 172, 173, 174, 175, 176, 177, 178, 179, 180, 181, 182, 183, 184, 185, 186, 187, 188, 189, 190, 191, 192, 193, 194, 195, 196, 197, 198, 199, 200, 201, 202, 203, 204, 205, 206, 207, 208, 209, 210, 211, 212, 213, 214, 215, 216, 217, 218, 219, 220, 221, 222, 223, 224, 225, 226, 227, 228, 229, 230, 231, 232, 233, 234, 235, 236, 237, 238, 239, 240],
      "AcquisitionTime": ["155642.150000", "155644.157500", "155646.165000", "155648.175000", "155650.182500", "155652.190000", "155654.197500", "155656.205000", "155658.215000", "155700.222500", "155702.230000", "155704.237500", "155706.245000", "155708.255000", "155710.262500", "155712.270000", "155714.277500", "155716.285000", "155718.295000", "155720.302500", "155722.310000", "155724.317500", "155726.327500", "155728.335000", "155730.342500", "155732.350000", "155734.357500", "155736.367500", "155738.375000", "155740.382500", "155742.390000", "155744.397500", "155746.407500", "155748.415000", "155750.422500", "155752.430000", "155754.440000", "155756.447500", "155758.455000", "155800.462500", "155802.470000", "155804.480000", "155806.487500", "155808.495000", "155810.502500", "155812.510000", "155814.520000", "155816.527500", "155818.535000", "155820.542500", "155822.552500", "155824.560000", "155826.567500", "155828.575000", "155830.582500", "155832.592500", "155834.600000", "155836.607500", "155838.615000", "155840.622500", "155842.632500", "155844.640000", "155846.647500", "155848.655000", "155850.662500", "155852.672500", "155854.680000", "155856.687500", "155858.695000", "155900.705000", "155902.712500", "155904.720000", "155906.727500", "155908.735000", "155910.745000", "155912.752500", "155914.760000", "155916.767500", "155918.775000", "155920.785000", "155922.792500", "155924.800000", "155926.807500", "155928.817500", "155930.825000", "155932.832500", "155934.840000", "155936.847500", "155938.857500", "155940.865000", "155942.872500", "155944.880000", "155946.887500", "155948.897500", "155950.905000", "155952.912500", "155954.920000", "155956.930000", "155958.937500", "160000.945000", "160002.952500", "160004.960000", "160006.970000", "160008.977500", "160010.985000", "160012.992500", "160015.000000", "160017.010000", "160019.017500", "160021.025000", "160023.032500", "160025.040000", "160027.050000", "160029.057500", "160031.065000", "160033.072500", "160035.082500", "160037.090000", "160039.097500", "160041.105000", "160043.112500", "160045.122500", "160047.130000", "160049.137500", "160051.145000", "160053.152500", "160055.162500", "160057.170000", "160059.177500", "160101.185000", "160103.195000", "160105.202500", "160107.210000", "160109.217500", "160111.225000", "160113.235000", "160115.242500", "160117.250000", "160119.257500", "160121.265000", "160123.275000", "160125.282500", "160127.290000", "160129.297500", "160131.307500", "160133.315000", "160135.322500", "160137.330000", "160139.337500", "160141.347500", "160143.355000", "160145.362500", "160147.370000", "160149.377500", "160151.387500", "160153.395000", "160155.402500", "160157.410000", "160159.420000", "160201.427500", "160203.435000", "160205.442500", "160207.450000", "160209.460000", "160211.467500", "160213.475000", "160215.482500", "160217.490000", "160219.500000", "160221.507500", "160223.515000", "160225.522500", "160227.530000", "160229.540000", "160231.547500", "160233.555000", "160235.562500", "160237.572500", "160239.580000", "160241.587500", "160243.595000", "160245.602500", "160247.612500", "160249.620000", "160251.627500", "160253.635000", "160255.642500", "160257.652500", "160259.660000", "160301.667500", "160303.675000", "160305.685000", "160307.692500", "160309.700000", "160311.707500", "160313.715000", "160315.725000", "160317.732500", "160319.740000", "160321.747500", "160323.755000", "160325.765000", "160327.772500", "160329.780000", "160331.787500", "160333.797500", "160335.805000", "160337.812500", "160339.820000", "160341.827500", "160343.837500", "160345.845000", "160347.852500", "160349.860000", "160351.867500", "160353.877500", "160355.885000", "160357.892500", "160359.900000", "160401.907500", "160403.917500", "160405.925000", "160407.932500", "160409.940000", "160411.950000", "160413.957500", "160415.965000", "160417.972500", "160419.980000", "160421.990000", "160423.997500", "160426.005000", "160428.012500", "160430.020000", "160432.030000", "160434.037500", "160436.045000", "160438.052500", "160440.062500", "160442.070000"],
      "ContentTime": ["155646.203000", "155646.203000", "155726.187000", "155726.203000", "155726.203000", "155726.203000", "155726.203000", "155726.203000", "155726.203000", "155726.203000", "155726.218000", "155726.218000", "155726.218000", "155726.218000", "155726.218000", "155726.218000", "155726.218000", "155726.234000", "155726.234000", "155726.234000", "155726.234000", "155726.234000", "155806.187000", "155806.203000", "155806.203000", "155806.203000", "155806.203000", "155806.203000", "155806.203000", "155806.203000", "155806.218000", "155806.218000", "155806.218000", "155806.218000", "155806.218000", "155806.218000", "155806.218000", "155806.234000", "155806.234000", "155806.234000", "155806.234000", "155806.234000", "155846.187000", "155846.203000", "155846.203000", "155846.203000", "155846.203000", "155846.203000", "155846.203000", "155846.203000", "155846.218000", "155846.218000", "155846.218000", "155846.218000", "155846.218000", "155846.218000", "155846.218000", "155846.234000", "155846.234000", "155846.234000", "155846.234000", "155846.234000", "155926.187000", "155926.203000", "155926.203000", "155926.203000", "155926.203000", "155926.203000", "155926.203000", "155926.203000", "155926.218000", "155926.218000", "155926.218000", "155926.218000", "155926.218000", "155926.218000", "155926.218000", "155926.218000", "155926.234000", "155926.234000", "155926.234000", "155926.234000", "160006.187000", "160006.203000", "160006.203000", "160006.203000", "160006.203000", "160006.203000", "160006.203000", "160006.203000", "160006.218000", "160006.218000", "160006.218000", "160006.218000", "160006.218000", "160006.218000", "160006.218000", "160006.234000", "160006.234000", "160006.234000", "160006.234000", "160006.234000", "160046.187000", "160046.203000", "160046.203000", "160046.203000", "160046.203000", "160046.203000", "160046.203000", "160046.203000", "160046.218000", "160046.218000", "160046.218000", "160046.218000", "160046.218000", "160046.218000", "160046.218000", "160046.218000", "160046.234000", "160046.234000", "160046.234000", "160046.234000", "160126.187000", "160126.203000", "160126.203000", "160126.203000", "160126.203000", "160126.203000", "160126.203000", "160126.203000", "160126.218000", "160126.218000", "160126.218000", "160126.218000", "160126.218000", "160126.218000", "160126.218000", "160126.234000", "160126.234000", "160126.234000", "160126.234000", "160126.234000", "160206.187000", "160206.203000", "160206.203000", "160206.203000", "160206.203000", "160206.203000", "160206.203000", "160206.203000", "160206.218000", "160206.218000", "160206.218000", "160206.218000", "160206.218000", "160206.218000", "160206.218000", "160206.234000", "160206.234000", "160206.234000", "160206.234000", "160206.234000", "160246.187000", "160246.203000", "160246.203000", "160246.203000", "160246.203000", "160246.203000", "160246.203000", "160246.203000", "160246.218000", "160246.218000", "160246.218000", "160246.218000", "160246.218000", "160246.218000", "160246.218000", "160246.218000", "160246.234000", "160246.234000", "160246.234000", "160246.234000", "160326.187000", "160326.203000", "160326.203000", "160326.203000", "160326.203000", "160326.203000", "160326.203000", "160326.203000", "160326.203000", "160326.218000", "160326.218000", "160326.218000", "160326.218000", "160326.218000", "160326.218000", "160326.218000", "160326.234000", "160326.234000", "160326.234000", "160326.234000", "160406.187000", "160406.203000", "160406.203000", "160406.203000", "160406.203000", "160406.203000", "160406.203000", "160406.203000", "160406.218000", "160406.218000", "160406.218000", "160406.218000", "160406.218000", "160406.218000", "160406.218000", "160406.218000", "160406.234000", "160406.234000", "160406.234000", "160406.234000", "160441.125000", "160441.125000", "160441.125000", "160441.125000", "160441.125000", "160441.140000", "160441.140000", "160441.140000", "160441.140000", "160441.140000", "160441.140000", "160441.140000", "160441.156000", "160441.156000", "160441.156000", "160441.156000", "160441.156000", "160441.156000"],
      "InstanceCreationTime": ["155646.203000", "155646.203000", "155726.187000", "155726.203000", "155726.203000", "155726.203000", "155726.203000", "155726.203000", "155726.203000", "155726.203000", "155726.218000", "155726.218000", "155726.218000", "155726.218000", "155726.218000", "155726.218000", "155726.218000", "155726.234000", "155726.234000", "155726.234000", "155726.234000", "155726.234000", "155806.187000", "155806.203000", "155806.203000", "155806.203000", "155806.203000", "155806.203000", "155806.203000", "155806.203000", "155806.218000", "155806.218000", "155806.218000", "155806.218000", "155806.218000", "155806.218000", "155806.218000", "155806.234000", "155806.234000", "155806.234000", "155806.234000", "155806.234000", "155846.187000", "155846.203000", "155846.203000", "155846.203000", "155846.203000", "155846.203000", "155846.203000", "155846.203000", "155846.218000", "155846.218000", "155846.218000", "155846.218000", "155846.218000", "155846.218000", "155846.218000", "155846.234000", "155846.234000", "155846.234000", "155846.234000", "155846.234000", "155926.187000", "155926.203000", "155926.203000", "155926.203000", "155926.203000", "155926.203000", "155926.203000", "155926.203000", "155926.218000", "155926.218000", "155926.218000", "155926.218000", "155926.218000", "155926.218000", "155926.218000", "155926.218000", "155926.234000", "155926.234000", "155926.234000", "155926.234000", "160006.187000", "160006.203000", "160006.203000", "160006.203000", "160006.203000", "160006.203000", "160006.203000", "160006.203000", "160006.218000", "160006.218000", "160006.218000", "160006.218000", "160006.218000", "160006.218000", "160006.218000", "160006.234000", "160006.234000", "160006.234000", "160006.234000", "160006.234000", "160046.187000", "160046.203000", "160046.203000", "160046.203000", "160046.203000", "160046.203000", "160046.203000", "160046.203000", "160046.218000", "160046.218000", "160046.218000", "160046.218000", "160046.218000", "160046.218000", "160046.218000", "160046.218000", "160046.234000", "160046.234000", "160046.234000", "160046.234000", "160126.187000", "160126.203000", "160126.203000", "160126.203000", "160126.203000", "160126.203000", "160126.203000", "160126.203000", "160126.218000", "160126.218000", "160126.218000", "160126.218000", "160126.218000", "160126.218000", "160126.218000", "160126.234000", "160126.234000", "160126.234000", "160126.234000", "160126.234000", "160206.187000", "160206.203000", "160206.203000", "160206.203000", "160206.203000", "160206.203000", "160206.203000", "160206.203000", "160206.218000", "160206.218000", "160206.218000", "160206.218000", "160206.218000", "160206.218000", "160206.218000", "160206.234000", "160206.234000", "160206.234000", "160206.234000", "160206.234000", "160246.187000", "160246.203000", "160246.203000", "160246.203000", "160246.203000", "160246.203000", "160246.203000", "160246.203000", "160246.218000", "160246.218000", "160246.218000", "160246.218000", "160246.218000", "160246.218000", "160246.218000", "160246.218000", "160246.234000", "160246.234000", "160246.234000", "160246.234000", "160326.187000", "160326.203000", "160326.203000", "160326.203000", "160326.203000", "160326.203000", "160326.203000", "160326.203000", "160326.203000", "160326.218000", "160326.218000", "160326.218000", "160326.218000", "160326.218000", "160326.218000", "160326.218000", "160326.234000", "160326.234000", "160326.234000", "160326.234000", "160406.187000", "160406.203000", "160406.203000", "160406.203000", "160406.203000", "160406.203000", "160406.203000", "160406.203000", "160406.218000", "160406.218000", "160406.218000", "160406.218000", "160406.218000", "160406.218000", "160406.218000", "160406.218000", "160406.234000", "160406.234000", "160406.234000", "160406.234000", "160441.125000", "160441.125000", "160441.125000", "160441.125000", "160441.125000", "160441.140000", "160441.140000", "160441.140000", "160441.140000", "160441.140000", "160441.140000", "160441.140000", "160441.156000", "160441.156000", "160441.156000", "160441.156000", "160441.156000", "160441.156000"],
      "InstanceNumber": [1, 2, 3, 4, 5, 6, 7, 8, 9, 10, 11, 12, 13, 14, 15, 16, 17, 18, 19, 20, 21, 22, 23, 24, 25, 26, 27, 28, 29, 30, 31, 32, 33, 34, 35, 36, 37, 38, 39, 40, 41, 42, 43, 44, 45, 46, 47, 48, 49, 50, 51, 52, 53, 54, 55, 56, 57, 58, 59, 60, 61, 62, 63, 64, 65, 66, 67, 68, 69, 70, 71, 72, 73, 74, 75, 76, 77, 78, 79, 80, 81, 82, 83, 84, 85, 86, 87, 88, 89, 90, 91, 92, 93, 94, 95, 96, 97, 98, 99, 100, 101, 102, 103, 104, 105, 106, 107, 108, 109, 110, 111, 112, 113, 114, 115, 116, 117, 118, 119, 120, 121, 122, 123, 124, 125, 126, 127, 128, 129, 130, 131, 132, 133, 134, 135, 136, 137, 138, 139, 140, 141, 142, 143, 144, 145, 146, 147, 148, 149, 150, 151, 152, 153, 154, 155, 156, 157, 158, 159, 160, 161, 162, 163, 164, 165, 166, 167, 168, 169, 170, 171, 172, 173, 174, 175, 176, 177, 178, 179, 180, 181, 182, 183, 184, 185, 186, 187, 188, 189, 190, 191, 192, 193, 194, 195, 196, 197, 198, 199, 200, 201, 202, 203, 204, 205, 206, 207, 208, 209, 210, 211, 212, 213, 214, 215, 216, 217, 218, 219, 220, 221, 222, 223, 224, 225, 226, 227, 228, 229, 230, 231, 232, 233, 234, 235, 236, 237, 238, 239, 240],
      "LargestImagePixelValue": [1685, 1714, 1610, 1604, 1612, 1603, 1604, 1634, 1585, 1604, 1632, 1598, 1595, 1608, 1584, 1591, 1586, 1577, 1617, 1611, 1579, 1591, 1582, 1594, 1610, 1653, 1632, 1649, 1669, 1641, 1647, 1704, 1683, 1672, 1701, 1736, 1692, 1793, 1768, 1821, 1781, 1771, 1750, 1656, 1632, 1654, 1614, 1666, 1738, 1674, 1633, 1649, 1621, 1596, 1642, 1650, 1680, 1627, 1724, 1673, 1642, 1678, 1658, 1629, 1641, 1671, 1609, 1621, 1633, 1629, 1642, 1603, 1722, 1798, 1681, 1703, 1650, 1710, 1641, 1604, 1717, 1782, 1715, 1622, 1664, 1632, 1737, 1622, 1734, 1669, 1638, 1638, 1751, 1724, 1695, 1705, 1629, 1628, 1600, 1605, 1594, 1648, 1601, 1594, 1659, 1624, 1608, 1636, 1631, 1637, 1656, 1649, 1648, 1619, 1630, 1643, 1642, 1654, 1653, 1637, 1620, 1658, 1620, 1641, 1652, 1671, 1661, 1648, 1648, 1648, 1683, 1630, 1656, 1682, 1637, 1733, 1673, 1777, 2019, 1765, 1666, 1691, 1693, 1673, 1644, 1701, 1861, 1656, 1661, 1655, 1670, 1666, 1793, 1712, 1619, 1700, 1725, 1822, 1602, 1783, 1807, 1695, 1803, 1678, 1775, 1668, 1643, 1677, 1587, 1626, 1742, 1644, 1589, 1622, 1680, 1625, 1625, 1639, 1650, 1700, 1678, 1646, 1629, 1593, 1624, 1609, 1642, 1596, 1645, 1622, 1603, 1657, 1771, 1839, 1641, 1628, 1608, 1580, 1564, 1590, 1645, 1707, 1676, 1650, 1646, 1683, 1812, 1685, 1672, 1590, 1649, 1629, 1750, 1647, 1631, 1692, 1709, 1669, 1720, 1835, 1653, 1641, 1641, 1636, 1626, 1637, 1649, 1651, 1656, 1660, 1669, 1718, 1682, 1676, 1633, 1609, 1722, 1788, 1667, 1649],
      "WindowCenter": [777.0, 777.0, 779.0, 780.0, 776.0, 776.0, 782.0, 777.0, 774.0, 777.0, 776.0, 776.0, 776.0, 775.0, 775.0, 777.0, 777.0, 778.0, 774.0, 775.0, 774.0, 774.0, 775.0, 774.0, 775.0, 781.0, 782.0, 782.0, 776.0, 776.0, 779.0, 778.0, 778.0, 776.0, 775.0, 775.0, 788.0, 793.0, 786.0, 781.0, 778.0, 778.0, 783.0, 778.0, 780.0, 776.0, 775.0, 775.0, 775.0, 777.0, 777.0, 779.0, 780.0, 777.0, 777.0, 778.0, 777.0, 777.0, 778.0, 776.0, 775.0, 776.0, 775.0, 775.0, 775.0, 775.0, 776.0, 776.0, 776.0, 778.0, 776.0, 777.0, 778.0, 780.0, 781.0, 778.0, 776.0, 778.0, 778.0, 777.0, 777.0, 775.0, 776.0, 776.0, 776.0, 775.0, 777.0, 777.0, 777.0, 779.0, 778.0, 776.0, 778.0, 777.0, 776.0, 781.0, 781.0, 780.0, 778.0, 774.0, 776.0, 777.0, 777.0, 780.0, 779.0, 777.0, 777.0, 776.0, 776.0, 778.0, 778.0, 779.0, 779.0, 778.0, 779.0, 779.0, 778.0, 780.0, 780.0, 779.0, 779.0, 778.0, 777.0, 780.0, 779.0, 777.0, 778.0, 777.0, 778.0, 778.0, 778.0, 778.0, 779.0, 779.0, 780.0, 785.0, 786.0, 789.0, 787.0, 786.0, 783.0, 781.0, 778.0, 779.0, 780.0, 782.0, 784.0, 781.0, 782.0, 781.0, 781.0, 781.0, 782.0, 783.0, 782.0, 782.0, 783.0, 782.0, 781.0, 782.0, 783.0, 787.0, 785.0, 783.0, 783.0, 781.0, 780.0, 780.0, 780.0, 783.0, 786.0, 783.0, 782.0, 780.0, 780.0, 780.0, 782.0, 782.0, 783.0, 782.0, 782.0, 781.0, 781.0, 779.0, 781.0, 781.0, 781.0, 780.0, 782.0, 782.0, 782.0, 784.0, 794.0, 785.0, 778.0, 786.0, 781.0, 776.0, 774.0, 777.0, 780.0, 781.0, 782.0, 782.0, 784.0, 783.0, 784.0, 783.0, 781.0, 780.0, 780.0, 780.0, 781.0, 782.0, 781.0, 780.0, 779.0, 781.0, 783.0, 784.0, 780.0, 779.0, 779.0, 779.0, 780.0, 781.0, 781.0, 783.0, 784.0, 784.0, 783.0, 783.0, 784.0, 783.0, 780.0, 778.0, 779.0, 781.0, 781.0, 782.0],
      "WindowWidth": [1634.0, 1635.0, 1638.0, 1643.0, 1632.0, 1633.0, 1648.0, 1634.0, 1628.0, 1634.0, 1631.0, 1632.0, 1632.0, 1628.0, 1629.0, 1634.0, 1634.0, 1637.0, 1628.0, 1630.0, 1626.0, 1627.0, 1630.0, 1627.0, 1630.0, 1644.0, 1647.0, 1647.0, 1633.0, 1632.0, 1639.0, 1638.0, 1637.0, 1632.0, 1629.0, 1636.0, 1663.0, 1677.0, 1666.0, 1652.0, 1643.0, 1645.0, 1654.0, 1641.0, 1644.0, 1635.0, 1632.0, 1631.0, 1633.0, 1638.0, 1638.0, 1643.0, 1644.0, 1636.0, 1638.0, 1640.0, 1637.0, 1638.0, 1640.0, 1633.0, 1631.0, 1635.0, 1631.0, 1631.0, 1633.0, 1633.0, 1636.0, 1635.0, 1635.0, 1639.0, 1635.0, 1636.0, 1641.0, 1644.0, 1648.0, 1639.0, 1635.0, 1641.0, 1638.0, 1636.0, 1637.0, 1633.0, 1634.0, 1636.0, 1634.0, 1633.0, 1638.0, 1636.0, 1638.0, 1641.0, 1640.0, 1635.0, 1639.0, 1639.0, 1635.0, 1648.0, 1647.0, 1643.0, 1637.0, 1629.0, 1633.0, 1637.0, 1635.0, 1636.0, 1639.0, 1637.0, 1637.0, 1633.0, 1634.0, 1638.0, 1639.0, 1643.0, 1642.0, 1637.0, 1641.0, 1642.0, 1640.0, 1643.0, 1644.0, 1642.0, 1641.0, 1638.0, 1637.0, 1643.0, 1642.0, 1636.0, 1639.0, 1636.0, 1639.0, 1640.0, 1638.0, 1639.0, 1642.0, 1641.0, 1645.0, 1658.0, 1658.0, 1669.0, 1665.0, 1661.0, 1653.0, 1647.0, 1641.0, 1644.0, 1644.0, 1651.0, 1655.0, 1649.0, 1651.0, 1647.0, 1648.0, 1647.0, 1650.0, 1652.0, 1649.0, 1651.0, 1652.0, 1650.0, 1648.0, 1651.0, 1651.0, 1663.0, 1657.0, 1652.0, 1652.0, 1648.0, 1643.0, 1643.0, 1645.0, 1651.0, 1661.0, 1652.0, 1648.0, 1643.0, 1642.0, 1645.0, 1649.0, 1650.0, 1652.0, 1649.0, 1647.0, 1646.0, 1646.0, 1641.0, 1645.0, 1647.0, 1644.0, 1644.0, 1649.0, 1649.0, 1648.0, 1654.0, 1679.0, 1657.0, 1641.0, 1661.0, 1646.0, 1633.0, 1629.0, 1637.0, 1642.0, 1646.0, 1650.0, 1649.0, 1652.0, 1652.0, 1651.0, 1655.0, 1646.0, 1643.0, 1645.0, 1643.0, 1647.0, 1647.0, 1646.0, 1646.0, 1642.0, 1647.0, 1651.0, 1654.0, 1643.0, 1642.0, 1643.0, 1640.0, 1643.0, 1647.0, 1647.0, 1652.0, 1653.0, 1655.0, 1653.0, 1652.0, 1654.0, 1652.0, 1643.0, 1640.0, 1640.0, 1646.0, 1646.0, 1649.0]
    },
    "slices": {}
  }
}