{
  "AcquisitionMatrixPE": 68,
  "AcquisitionNumber": 1,
  "AcquisitionTime": "15:46:57.245000",
  "BandwidthPerPixelPhaseEncode": 31.289,
  "BaseResolution": 68,
  "CoilString": "C:HEA;HEP",
  "ConversionSoftware": "dcm2niix",
  "ConversionSoftwareVersion": "v1.0.20190902",
  "DerivedVendorReportedEchoSpacing": 0.000470002,
  "DeviceSerialNumber": "35450",
  "DwellTime": 3e-06,
  "EchoTime": 0.023,
  "EffectiveEchoSpacing": 0.000470002,
  "FlipAngle": 76,
  "ImageOrientationPatientDICOM": [0.999976, 0.000814536, 0.00693358, -2.7569e-08, 0.993171, -0.116671],
  "ImageType": [
    "ORIGINAL",
    "PRIMARY",
    "M",
    "ND",
    "MOSAIC"
],
  "ImagingFrequency": 123.219,
  "InPlanePhaseEncodingDirectionDICOM": "COL",
  "InstitutionAddress": "Univeristy_Ave._197_Newark_North_East_US_07102-1814",
  "InstitutionName": "RUBIC",
  "InstitutionalDepartmentName": "Department",
  "MRAcquisitionType": "2D",
  "MagneticFieldStrength": 3,
  "Manufacturer": "Siemens",
  "ManufacturersModelName": "TrioTim",
  "Modality": "MR",
  "PartialFourier": 1,
  "PatientPosition": "HFS",
  "PercentPhaseFOV": 100,
  "PhaseEncodingDirection": "j-",
  "PhaseEncodingSteps": 68,
  "PhaseResolution": 1,
  "PixelBandwidth": 2451,
  "ProcedureStepDescription": "Krekelberg_David",
  "ProtocolName": "ep2d_bold_CardGameEPI_2",
  "PulseSequenceDetails": "%SiemensSeq%_ep2d_bold",
  "ReceiveCoilName": "HeadMatrix",
  "ReconMatrixPE": 68,
  "RepetitionTime": 2,
  "SAR": 0.18421,
  "ScanOptions": "FS",
  "ScanningSequence": "EP",
  "SequenceName": "_epfid2d1_68",
  "SequenceVariant": "SK",
  "SeriesDescription": "ep2d_bold_CardGameEPI_2",
  "SeriesNumber": 8,
  "ShimSetting": [1974, -656, -7530, 714, 83, -34, -503, -71],
  "SliceThickness": 2.5,
  "SliceTiming": [1.9525, 1.8975, 1.84, 1.785, 1.73, 1.675, 1.6175, 1.5625, 1.5075, 1.45, 1.395, 1.34, 1.2825, 1.2275, 1.1725, 1.1175, 1.06, 1.005, 0.95, 0.8925, 0.8375, 0.7825, 0.725, 0.67, 0.615, 0.5575, 0.5025, 0.4475, 0.3925, 0.335, 0.28, 0.225, 0.1675, 0.1125, 0.0575, 0],
  "SoftwareVersions": "syngo_MR_B19",
  "SpacingBetweenSlices": 3,
  "StationName": "MRC35450",
  "TaskName": "cardgame",
  "TotalReadoutTime": 0.0314901,
  "TxRefAmp": 347.536,
  "dcmmeta_affine": [
    [-2.999926805496216, -8.270708917734737e-08, 0.0209437794983387, 102.98693084716797],
    [-0.0024436083622276783, 2.9795119762420654, -0.3500036895275116, -75.16548919677734],
    [0.020800737664103508, 0.3500122129917145, 2.9794392585754395, -48.12656784057617],
    [0.0, 0.0, 0.0, 1.0]
],
  "dcmmeta_reorient_transform": [
    [0.0, -1.0, 0.0, 67.0],
    [1.0, 0.0, 0.0, 0.0],
    [0.0, 0.0, 1.0, 0.0],
    [0.0, 0.0, 0.0, 1.0]
],
  "dcmmeta_shape": [68, 68, 36, 258],
  "dcmmeta_slice_dim": 2,
  "dcmmeta_version": 0.6,
  "global": {
    "const": {
      "AcquisitionMatrix": [68, 0, 0, 68],
      "AngioFlag": "N",
      "BitsAllocated": 16,
      "BitsStored": 12,
      "Columns": 408,
      "EchoNumbers": 1,
      "EchoTime": 23.0,
      "EchoTrainLength": 1,
      "FlipAngle": 76.0,
      "HighBit": 11,
      "ImageOrientationPatient": [0.99997563070726, 0.0008145361468, 0.00693357934158, -2.756903e-08, 0.99317064931944, -0.116670738964],
      "ImagePositionPatient": [-612.97448518343, -631.39425470285, 31.290203242885],
      "ImageType": [
        "ORIGINAL",
        "PRIMARY",
        "M",
        "ND",
        "MOSAIC"
],
      "ImagedNucleus": "1H",
      "ImagingFrequency": 123.218536,
      "InPlanePhaseEncodingDirection": "COL",
      "MRAcquisitionType": "2D",
      "MagneticFieldStrength": 3.0,
      "Manufacturer": "SIEMENS",
      "ManufacturerModelName": "TrioTim",
      "Modality": "MR",
      "NumberOfAverages": 1.0,
      "NumberOfPhaseEncodingSteps": 68,
      "PercentPhaseFieldOfView": 100.0,
      "PercentSampling": 100.0,
      "PerformedProcedureStepStartTime": "150404.187000",
      "PhotometricInterpretation": "MONOCHROME2",
      "PixelBandwidth": 2451.0,
      "PixelRepresentation": 0,
      "PixelSpacing": [3.0, 3.0],
      "ProtocolName": "ep2d_bold_CardGameEPI_2",
      "RepetitionTime": 2000.0,
      "Rows": 408,
      "SAR": 0.184209708463,
      "SamplesPerPixel": 1,
      "ScanOptions": "FS",
      "ScanningSequence": "EP",
      "SequenceName": "*epfid2d1_68",
      "SequenceVariant": "SK",
      "SeriesDescription": "ep2d_bold_CardGameEPI_2",
      "SeriesNumber": 8,
      "SeriesTime": "154701.234000",
      "SliceLocation": -38.308350549893,
      "SliceThickness": 2.5,
      "SmallestImagePixelValue": 0,
      "SoftwareVersions": "syngo MR B19",
      "SpacingBetweenSlices": 2.9999999832036,
      "SpecificCharacterSet": "ISO_IR 100",
      "StudyID": "1",
      "StudyTime": "150404.140000",
      "TransmitCoilName": "Body",
      "VariableFlipAngleFlag": "N",
      "WindowCenterWidthExplanation": "Algo1",
      "dBdt": 0.0},
    "slices": {}
  },
  "time": {
    "samples": {
      "AcquisitionNumber": [1, 2, 3, 4, 5, 6, 7, 8, 9, 10, 11, 12, 13, 14, 15, 16, 17, 18, 19, 20, 21, 22, 23, 24, 25, 26, 27, 28, 29, 30, 31, 32, 33, 34, 35, 36, 37, 38, 39, 40, 41, 42, 43, 44, 45, 46, 47, 48, 49, 50, 51, 52, 53, 54, 55, 56, 57, 58, 59, 60, 61, 62, 63, 64, 65, 66, 67, 68, 69, 70, 71, 72, 73, 74, 75, 76, 77, 78, 79, 80, 81, 82, 83, 84, 85, 86, 87, 88, 89, 90, 91, 92, 93, 94, 95, 96, 97, 98, 99, 100, 101, 102, 103, 104, 105, 106, 107, 108, 109, 110, 111, 112, 113, 114, 115, 116, 117, 118, 119, 120, 121, 122, 123, 124, 125, 126, 127, 128, 129, 130, 131, 132, 133, 134, 135, 136, 137, 138, 139, 140, 141, 142, 143, 144, 145, 146, 147, 148, 149, 150, 151, 152, 153, 154, 155, 156, 157, 158, 159, 160, 161, 162, 163, 164, 165, 166, 167, 168, 169, 170, 171, 172, 173, 174, 175, 176, 177, 178, 179, 180, 181, 182, 183, 184, 185, 186, 187, 188, 189, 190, 191, 192, 193, 194, 195, 196, 197, 198, 199, 200, 201, 202, 203, 204, 205, 206, 207, 208, 209, 210, 211, 212, 213, 214, 215, 216, 217, 218, 219, 220, 221, 222, 223, 224, 225, 226, 227, 228, 229, 230, 231, 232, 233, 234, 235, 236, 237, 238, 239, 240, 241, 242, 243, 244, 245, 246, 247, 248, 249, 250, 251, 252, 253, 254, 255, 256, 257, 258],
      "AcquisitionTime": ["154657.245000", "154659.252500", "154701.262500", "154703.270000", "154705.277500", "154707.285000", "154709.292500", "154711.302500", "154713.310000", "154715.317500", "154717.325000", "154719.332500", "154721.342500", "154723.350000", "154725.357500", "154727.365000", "154729.372500", "154731.382500", "154733.390000", "154735.397500", "154737.405000", "154739.415000", "154741.422500", "154743.430000", "154745.437500", "154747.445000", "154749.455000", "154751.462500", "154753.470000", "154755.477500", "154757.485000", "154759.495000", "154801.502500", "154803.510000", "154805.517500", "154807.527500", "154809.535000", "154811.542500", "154813.550000", "154815.557500", "154817.567500", "154819.575000", "154821.582500", "154823.590000", "154825.597500", "154827.607500", "154829.615000", "154831.622500", "154833.630000", "154835.640000", "154837.647500", "154839.655000", "154841.662500", "154843.670000", "154845.680000", "154847.687500", "154849.695000", "154851.702500", "154853.710000", "154855.720000", "154857.727500", "154859.735000", "154901.742500", "154903.750000", "154905.760000", "154907.767500", "154909.775000", "154911.782500", "154913.792500", "154915.800000", "154917.807500", "154919.815000", "154921.822500", "154923.832500", "154925.840000", "154927.847500", "154929.855000", "154931.862500", "154933.872500", "154935.880000", "154937.887500", "154939.895000", "154941.905000", "154943.912500", "154945.920000", "154947.927500", "154949.935000", "154951.945000", "154953.952500", "154955.960000", "154957.967500", "154959.975000", "155001.985000", "155003.992500", "155006.000000", "155008.007500", "155010.017500", "155012.025000", "155014.032500", "155016.040000", "155018.047500", "155020.057500", "155022.065000", "155024.072500", "155026.080000", "155028.087500", "155030.097500", "155032.105000", "155034.112500", "155036.120000", "155038.130000", "155040.137500", "155042.145000", "155044.152500", "155046.160000", "155048.170000", "155050.177500", "155052.185000", "155054.192500", "155056.200000", "155058.210000", "155100.217500", "155102.225000", "155104.232500", "155106.240000", "155108.250000", "155110.257500", "155112.265000", "155114.272500", "155116.282500", "155118.290000", "155120.297500", "155122.305000", "155124.312500", "155126.322500", "155128.330000", "155130.337500", "155132.345000", "155134.352500", "155136.362500", "155138.370000", "155140.377500", "155142.385000", "155144.395000", "155146.402500", "155148.410000", "155150.417500", "155152.425000", "155154.435000", "155156.442500", "155158.450000", "155200.457500", "155202.465000", "155204.475000", "155206.482500", "155208.490000", "155210.497500", "155212.507500", "155214.515000", "155216.522500", "155218.530000", "155220.537500", "155222.547500", "155224.555000", "155226.562500", "155228.570000", "155230.577500", "155232.587500", "155234.595000", "155236.602500", "155238.610000", "155240.617500", "155242.627500", "155244.635000", "155246.642500", "155248.650000", "155250.660000", "155252.667500", "155254.675000", "155256.682500", "155258.690000", "155300.700000", "155302.707500", "155304.715000", "155306.722500", "155308.730000", "155310.740000", "155312.747500", "155314.755000", "155316.762500", "155318.772500", "155320.780000", "155322.787500", "155324.795000", "155326.802500", "155328.812500", "155330.820000", "155332.827500", "155334.835000", "155336.842500", "155338.852500", "155340.860000", "155342.867500", "155344.875000", "155346.885000", "155348.892500", "155350.900000", "155352.907500", "155354.915000", "155356.925000", "155358.932500", "155400.940000", "155402.947500", "155404.955000", "155406.965000", "155408.972500", "155410.980000", "155412.987500", "155414.995000", "155417.005000", "155419.012500", "155421.020000", "155423.027500", "155425.037500", "155427.045000", "155429.052500", "155431.060000", "155433.067500", "155435.077500", "155437.085000", "155439.092500", "155441.100000", "155443.107500", "155445.117500", "155447.125000", "155449.132500", "155451.140000", "155453.150000", "155455.157500", "155457.165000", "155459.172500", "155501.180000", "155503.190000", "155505.197500", "155507.205000", "155509.212500", "155511.220000", "155513.230000", "155515.237500", "155517.245000", "155519.252500", "155521.262500", "155523.270000", "155525.277500", "155527.285000", "155529.292500", "155531.302500", "155533.310000"],
      "ContentTime": ["154701.234000", "154701.234000", "154741.218000", "154741.234000", "154741.234000", "154741.234000", "154741.234000", "154741.234000", "154741.234000", "154741.234000", "154741.250000", "154741.250000", "154741.250000", "154741.250000", "154741.250000", "154741.250000", "154741.265000", "154741.265000", "154741.265000", "154741.265000", "154741.265000", "154741.265000", "154821.218000", "154821.234000", "154821.234000", "154821.234000", "154821.234000", "154821.234000", "154821.234000", "154821.234000", "154821.250000", "154821.250000", "154821.250000", "154821.250000", "154821.250000", "154821.250000", "154821.250000", "154821.250000", "154821.265000", "154821.265000", "154821.265000", "154821.265000", "154901.218000", "154901.234000", "154901.234000", "154901.234000", "154901.234000", "154901.234000", "154901.234000", "154901.234000", "154901.250000", "154901.250000", "154901.250000", "154901.250000", "154901.250000", "154901.250000", "154901.250000", "154901.250000", "154901.265000", "154901.265000", "154901.265000", "154901.265000", "154941.218000", "154941.234000", "154941.234000", "154941.234000", "154941.234000", "154941.234000", "154941.234000", "154941.234000", "154941.250000", "154941.250000", "154941.250000", "154941.250000", "154941.250000", "154941.250000", "154941.265000", "154941.265000", "154941.265000", "154941.265000", "154941.265000", "154941.265000", "155021.218000", "155021.234000", "155021.234000", "155021.234000", "155021.234000", "155021.234000", "155021.234000", "155021.234000", "155021.250000", "155021.250000", "155021.250000", "155021.250000", "155021.250000", "155021.250000", "155021.250000", "155021.250000", "155021.265000", "155021.265000", "155021.265000", "155021.265000", "155101.218000", "155101.234000", "155101.234000", "155101.234000", "155101.234000", "155101.234000", "155101.234000", "155101.234000", "155101.250000", "155101.250000", "155101.250000", "155101.250000", "155101.250000", "155101.250000", "155101.250000", "155101.265000", "155101.265000", "155101.265000", "155101.265000", "155101.265000", "155141.218000", "155141.234000", "155141.234000", "155141.234000", "155141.234000", "155141.234000", "155141.234000", "155141.234000", "155141.250000", "155141.250000", "155141.250000", "155141.250000", "155141.250000", "155141.250000", "155141.250000", "155141.265000", "155141.265000", "155141.265000", "155141.265000", "155141.265000", "155221.218000", "155221.234000", "155221.234000", "155221.234000", "155221.234000", "155221.234000", "155221.234000", "155221.234000", "155221.250000", "155221.250000", "155221.250000", "155221.250000", "155221.250000", "155221.250000", "155221.250000", "155221.250000", "155221.265000", "155221.265000", "155221.265000", "155221.265000", "155301.218000", "155301.234000", "155301.234000", "155301.234000", "155301.234000", "155301.234000", "155301.234000", "155301.234000", "155301.250000", "155301.250000", "155301.250000", "155301.250000", "155301.250000", "155301.250000", "155301.250000", "155301.265000", "155301.265000", "155301.265000", "155301.265000", "155301.265000", "155341.218000", "155341.234000", "155341.234000", "155341.234000", "155341.234000", "155341.234000", "155341.234000", "155341.234000", "155341.250000", "155341.250000", "155341.250000", "155341.250000", "155341.250000", "155341.250000", "155341.265000", "155341.265000", "155341.265000", "155341.265000", "155341.265000", "155341.265000", "155421.218000", "155421.234000", "155421.234000", "155421.234000", "155421.234000", "155421.234000", "155421.234000", "155421.250000", "155421.250000", "155421.250000", "155421.250000", "155421.250000", "155421.250000", "155421.250000", "155421.250000", "155421.265000", "155421.265000", "155421.265000", "155421.265000", "155421.265000", "155501.218000", "155501.234000", "155501.234000", "155501.234000", "155501.234000", "155501.234000", "155501.234000", "155501.234000", "155501.250000", "155501.250000", "155501.250000", "155501.250000", "155501.265000", "155501.265000", "155501.265000", "155501.265000", "155501.265000", "155501.265000", "155501.265000", "155501.281000", "155532.375000", "155532.375000", "155532.375000", "155532.375000", "155532.375000", "155532.375000", "155532.390000", "155532.390000", "155532.390000", "155532.390000", "155532.390000", "155532.390000", "155532.390000", "155532.390000", "155532.406000", "155532.406000"],
      "InstanceCreationTime": ["154701.234000", "154701.234000", "154741.218000", "154741.234000", "154741.234000", "154741.234000", "154741.234000", "154741.234000", "154741.234000", "154741.234000", "154741.250000", "154741.250000", "154741.250000", "154741.250000", "154741.250000", "154741.250000", "154741.265000", "154741.265000", "154741.265000", "154741.265000", "154741.265000", "154741.265000", "154821.218000", "154821.234000", "154821.234000", "154821.234000", "154821.234000", "154821.234000", "154821.234000", "154821.234000", "154821.250000", "154821.250000", "154821.250000", "154821.250000", "154821.250000", "154821.250000", "154821.250000", "154821.250000", "154821.265000", "154821.265000", "154821.265000", "154821.265000", "154901.218000", "154901.234000", "154901.234000", "154901.234000", "154901.234000", "154901.234000", "154901.234000", "154901.234000", "154901.250000", "154901.250000", "154901.250000", "154901.250000", "154901.250000", "154901.250000", "154901.250000", "154901.250000", "154901.265000", "154901.265000", "154901.265000", "154901.265000", "154941.218000", "154941.234000", "154941.234000", "154941.234000", "154941.234000", "154941.234000", "154941.234000", "154941.234000", "154941.250000", "154941.250000", "154941.250000", "154941.250000", "154941.250000", "154941.250000", "154941.265000", "154941.265000", "154941.265000", "154941.265000", "154941.265000", "154941.265000", "155021.218000", "155021.234000", "155021.234000", "155021.234000", "155021.234000", "155021.234000", "155021.234000", "155021.234000", "155021.250000", "155021.250000", "155021.250000", "155021.250000", "155021.250000", "155021.250000", "155021.250000", "155021.250000", "155021.265000", "155021.265000", "155021.265000", "155021.265000", "155101.218000", "155101.234000", "155101.234000", "155101.234000", "155101.234000", "155101.234000", "155101.234000", "155101.234000", "155101.250000", "155101.250000", "155101.250000", "155101.250000", "155101.250000", "155101.250000", "155101.250000", "155101.265000", "155101.265000", "155101.265000", "155101.265000", "155101.265000", "155141.218000", "155141.234000", "155141.234000", "155141.234000", "155141.234000", "155141.234000", "155141.234000", "155141.234000", "155141.250000", "155141.250000", "155141.250000", "155141.250000", "155141.250000", "155141.250000", "155141.250000", "155141.265000", "155141.265000", "155141.265000", "155141.265000", "155141.265000", "155221.218000", "155221.234000", "155221.234000", "155221.234000", "155221.234000", "155221.234000", "155221.234000", "155221.234000", "155221.250000", "155221.250000", "155221.250000", "155221.250000", "155221.250000", "155221.250000", "155221.250000", "155221.250000", "155221.265000", "155221.265000", "155221.265000", "155221.265000", "155301.218000", "155301.234000", "155301.234000", "155301.234000", "155301.234000", "155301.234000", "155301.234000", "155301.234000", "155301.250000", "155301.250000", "155301.250000", "155301.250000", "155301.250000", "155301.250000", "155301.250000", "155301.265000", "155301.265000", "155301.265000", "155301.265000", "155301.265000", "155341.218000", "155341.234000", "155341.234000", "155341.234000", "155341.234000", "155341.234000", "155341.234000", "155341.234000", "155341.250000", "155341.250000", "155341.250000", "155341.250000", "155341.250000", "155341.250000", "155341.265000", "155341.265000", "155341.265000", "155341.265000", "155341.265000", "155341.265000", "155421.218000", "155421.234000", "155421.234000", "155421.234000", "155421.234000", "155421.234000", "155421.234000", "155421.250000", "155421.250000", "155421.250000", "155421.250000", "155421.250000", "155421.250000", "155421.250000", "155421.250000", "155421.265000", "155421.265000", "155421.265000", "155421.265000", "155421.265000", "155501.218000", "155501.234000", "155501.234000", "155501.234000", "155501.234000", "155501.234000", "155501.234000", "155501.234000", "155501.250000", "155501.250000", "155501.250000", "155501.250000", "155501.265000", "155501.265000", "155501.265000", "155501.265000", "155501.265000", "155501.265000", "155501.265000", "155501.281000", "155532.375000", "155532.375000", "155532.375000", "155532.375000", "155532.375000", "155532.375000", "155532.390000", "155532.390000", "155532.390000", "155532.390000", "155532.390000", "155532.390000", "155532.390000", "155532.390000", "155532.406000", "155532.406000"],
      "InstanceNumber": [1, 2, 3, 4, 5, 6, 7, 8, 9, 10, 11, 12, 13, 14, 15, 16, 17, 18, 19, 20, 21, 22, 23, 24, 25, 26, 27, 28, 29, 30, 31, 32, 33, 34, 35, 36, 37, 38, 39, 40, 41, 42, 43, 44, 45, 46, 47, 48, 49, 50, 51, 52, 53, 54, 55, 56, 57, 58, 59, 60, 61, 62, 63, 64, 65, 66, 67, 68, 69, 70, 71, 72, 73, 74, 75, 76, 77, 78, 79, 80, 81, 82, 83, 84, 85, 86, 87, 88, 89, 90, 91, 92, 93, 94, 95, 96, 97, 98, 99, 100, 101, 102, 103, 104, 105, 106, 107, 108, 109, 110, 111, 112, 113, 114, 115, 116, 117, 118, 119, 120, 121, 122, 123, 124, 125, 126, 127, 128, 129, 130, 131, 132, 133, 134, 135, 136, 137, 138, 139, 140, 141, 142, 143, 144, 145, 146, 147, 148, 149, 150, 151, 152, 153, 154, 155, 156, 157, 158, 159, 160, 161, 162, 163, 164, 165, 166, 167, 168, 169, 170, 171, 172, 173, 174, 175, 176, 177, 178, 179, 180, 181, 182, 183, 184, 185, 186, 187, 188, 189, 190, 191, 192, 193, 194, 195, 196, 197, 198, 199, 200, 201, 202, 203, 204, 205, 206, 207, 208, 209, 210, 211, 212, 213, 214, 215, 216, 217, 218, 219, 220, 221, 222, 223, 224, 225, 226, 227, 228, 229, 230, 231, 232, 233, 234, 235, 236, 237, 238, 239, 240, 241, 242, 243, 244, 245, 246, 247, 248, 249, 250, 251, 252, 253, 254, 255, 256, 257, 258],
      "LargestImagePixelValue": [1723, 1657, 1643, 1621, 1626, 1621, 1565, 1615, 1624, 1636, 1568, 1618, 1633, 1618, 1632, 1624, 1627, 1635, 1619, 1647, 1635, 1702, 1583, 1568, 1554, 1555, 1586, 1598, 1585, 1566, 1588, 1611, 1562, 1639, 1617, 1589, 1625, 1689, 1694, 1668, 1655, 1682, 1637, 1720, 1681, 1721, 1670, 1701, 1610, 1788, 1667, 1598, 1602, 1636, 1602, 1548, 1797, 1661, 1695, 1618, 1634, 1600, 1695, 1750, 1607, 1643, 1559, 1608, 1590, 1619, 1619, 1641, 1619, 1657, 1649, 1659, 1654, 1633, 1655, 1621, 1635, 1627, 1654, 1799, 1668, 1650, 1622, 1670, 1648, 1642, 1653, 1658, 1639, 1636, 1660, 1687, 1692, 1691, 1699, 1661, 1787, 1634, 1638, 1654, 1603, 1671, 1697, 1658, 1650, 1664, 1645, 1639, 1715, 1677, 1707, 1673, 1669, 1672, 1676, 1698, 1650, 1625, 1650, 1638, 1697, 1664, 1667, 1658, 1628, 1678, 1708, 1668, 1654, 1572, 1575, 1562, 1560, 1559, 1556, 1581, 1569, 1580, 1658, 1632, 1688, 1603, 1684, 1665, 1656, 1681, 1670, 1691, 1723, 1659, 1659, 1679, 1669, 1647, 1647, 1668, 1705, 1688, 1636, 1710, 1588, 1646, 1619, 1615, 1627, 1615, 1644, 1637, 1709, 1639, 1692, 1791, 1585, 1606, 1700, 1608, 1645, 1636, 1668, 1640, 1622, 1694, 1688, 1679, 1706, 1697, 1702, 1673, 1677, 1679, 1679, 1681, 1651, 1670, 1679, 1662, 1702, 1680, 1680, 1699, 1696, 1675, 1692, 1666, 1685, 1687, 1701, 1686, 1689, 1683, 1689, 1733, 1708, 1642, 1707, 1660, 1686, 1688, 1646, 1693, 1703, 1696, 1727, 1706, 1697, 1788, 1685, 1733, 1673, 1664, 1738, 1776, 1682, 1654, 1653, 1691, 1689, 1675, 1703, 1713, 1708, 1729, 1710, 1691, 1690, 1718, 1683, 1674, 1699, 1698, 1689, 1723, 1709, 1697],
      "WindowCenter": [778.0, 774.0, 774.0, 774.0, 773.0, 773.0, 774.0, 774.0, 773.0, 773.0, 773.0, 772.0, 775.0, 776.0, 775.0, 774.0, 772.0, 774.0, 775.0, 777.0, 776.0, 777.0, 777.0, 773.0, 773.0, 774.0, 774.0, 777.0, 777.0, 777.0, 773.0, 774.0, 776.0, 775.0, 775.0, 774.0, 774.0, 779.0, 787.0, 786.0, 779.0, 778.0, 775.0, 777.0, 778.0, 778.0, 779.0, 777.0, 781.0, 792.0, 780.0, 777.0, 775.0, 774.0, 775.0, 775.0, 779.0, 782.0, 783.0, 776.0, 775.0, 776.0, 782.0, 786.0, 777.0, 780.0, 776.0, 772.0, 772.0, 772.0, 774.0, 773.0, 774.0, 776.0, 775.0, 778.0, 778.0, 779.0, 776.0, 775.0, 776.0, 777.0, 778.0, 781.0, 781.0, 779.0, 776.0, 776.0, 776.0, 777.0, 777.0, 776.0, 777.0, 778.0, 782.0, 781.0, 781.0, 779.0, 786.0, 779.0, 782.0, 779.0, 776.0, 777.0, 778.0, 778.0, 779.0, 777.0, 777.0, 778.0, 778.0, 777.0, 778.0, 783.0, 781.0, 777.0, 777.0, 778.0, 780.0, 779.0, 781.0, 788.0, 784.0, 782.0, 779.0, 777.0, 775.0, 776.0, 778.0, 784.0, 785.0, 782.0, 783.0, 780.0, 776.0, 775.0, 774.0, 777.0, 779.0, 778.0, 779.0, 780.0, 782.0, 779.0, 782.0, 781.0, 781.0, 778.0, 778.0, 780.0, 781.0, 781.0, 787.0, 782.0, 781.0, 783.0, 781.0, 780.0, 781.0, 783.0, 784.0, 784.0, 780.0, 778.0, 776.0, 777.0, 778.0, 779.0, 780.0, 779.0, 779.0, 780.0, 780.0, 779.0, 781.0, 786.0, 780.0, 783.0, 781.0, 780.0, 781.0, 781.0, 781.0, 782.0, 783.0, 784.0, 782.0, 781.0, 782.0, 783.0, 782.0, 780.0, 779.0, 779.0, 778.0, 779.0, 779.0, 779.0, 780.0, 781.0, 782.0, 783.0, 783.0, 781.0, 780.0, 780.0, 781.0, 781.0, 781.0, 780.0, 780.0, 781.0, 782.0, 783.0, 788.0, 785.0, 790.0, 783.0, 780.0, 779.0, 778.0, 778.0, 781.0, 781.0, 783.0, 785.0, 783.0, 783.0, 781.0, 781.0, 781.0, 780.0, 781.0, 786.0, 784.0, 785.0, 783.0, 779.0, 778.0, 779.0, 780.0, 781.0, 782.0, 782.0, 782.0, 781.0, 784.0, 785.0, 785.0, 783.0, 780.0, 782.0, 782.0, 782.0, 782.0, 782.0, 784.0, 783.0],
      "WindowWidth": [1639.0, 1629.0, 1629.0, 1629.0, 1625.0, 1626.0, 1628.0, 1628.0, 1626.0, 1627.0, 1626.0, 1624.0, 1632.0, 1635.0, 1631.0, 1629.0, 1624.0, 1629.0, 1633.0, 1638.0, 1633.0, 1640.0, 1636.0, 1625.0, 1625.0, 1628.0, 1630.0, 1638.0, 1637.0, 1637.0, 1626.0, 1630.0, 1633.0, 1631.0, 1632.0, 1629.0, 1631.0, 1648.0, 1660.0, 1659.0, 1640.0, 1637.0, 1630.0, 1637.0, 1638.0, 1637.0, 1641.0, 1636.0, 1647.0, 1668.0, 1648.0, 1639.0, 1632.0, 1631.0, 1632.0, 1633.0, 1643.0, 1650.0, 1652.0, 1633.0, 1633.0, 1633.0, 1646.0, 1660.0, 1640.0, 1645.0, 1633.0, 1624.0, 1625.0, 1623.0, 1628.0, 1627.0, 1627.0, 1634.0, 1632.0, 1639.0, 1638.0, 1641.0, 1634.0, 1631.0, 1634.0, 1635.0, 1639.0, 1647.0, 1644.0, 1641.0, 1633.0, 1634.0, 1633.0, 1636.0, 1638.0, 1634.0, 1637.0, 1640.0, 1648.0, 1647.0, 1645.0, 1640.0, 1657.0, 1644.0, 1649.0, 1641.0, 1633.0, 1637.0, 1637.0, 1639.0, 1641.0, 1635.0, 1636.0, 1638.0, 1637.0, 1637.0, 1640.0, 1649.0, 1645.0, 1636.0, 1635.0, 1638.0, 1644.0, 1640.0, 1648.0, 1667.0, 1654.0, 1648.0, 1640.0, 1636.0, 1630.0, 1634.0, 1639.0, 1652.0, 1660.0, 1652.0, 1651.0, 1645.0, 1634.0, 1632.0, 1630.0, 1637.0, 1641.0, 1639.0, 1642.0, 1645.0, 1648.0, 1641.0, 1650.0, 1644.0, 1646.0, 1638.0, 1639.0, 1643.0, 1645.0, 1646.0, 1664.0, 1648.0, 1647.0, 1651.0, 1646.0, 1643.0, 1644.0, 1652.0, 1654.0, 1651.0, 1646.0, 1641.0, 1633.0, 1637.0, 1640.0, 1642.0, 1645.0, 1643.0, 1642.0, 1643.0, 1644.0, 1642.0, 1649.0, 1661.0, 1644.0, 1650.0, 1646.0, 1643.0, 1646.0, 1645.0, 1647.0, 1650.0, 1651.0, 1653.0, 1649.0, 1645.0, 1650.0, 1652.0, 1648.0, 1644.0, 1642.0, 1641.0, 1639.0, 1642.0, 1641.0, 1640.0, 1643.0, 1646.0, 1648.0, 1653.0, 1649.0, 1646.0, 1643.0, 1643.0, 1648.0, 1645.0, 1645.0, 1643.0, 1644.0, 1647.0, 1648.0, 1651.0, 1661.0, 1659.0, 1667.0, 1649.0, 1643.0, 1640.0, 1636.0, 1637.0, 1644.0, 1645.0, 1650.0, 1655.0, 1650.0, 1649.0, 1645.0, 1644.0, 1645.0, 1644.0, 1645.0, 1656.0, 1656.0, 1656.0, 1651.0, 1640.0, 1638.0, 1641.0, 1642.0, 1646.0, 1648.0, 1649.0, 1648.0, 1646.0, 1654.0, 1654.0, 1656.0, 1649.0, 1644.0, 1647.0, 1647.0, 1648.0, 1647.0, 1649.0, 1652.0, 1650.0]
    },
    "slices": {}
  }
}