{
  "AcquisitionMatrixPE": 68,
  "AcquisitionNumber": 1,
  "AcquisitionTime": "11:19:1.755000",
  "BandwidthPerPixelPhaseEncode": 31.289,
  "BaseResolution": 68,
  "CoilString": "C:HEA;HEP",
  "ConversionSoftware": "dcm2niix",
  "ConversionSoftwareVersion": "v1.0.20190902",
  "DerivedVendorReportedEchoSpacing": 0.000470002,
  "DeviceSerialNumber": "35450",
  "DwellTime": 3e-06,
  "EchoTime": 0.023,
  "EffectiveEchoSpacing": 0.000470002,
  "FlipAngle": 76,
  "ImageOrientationPatientDICOM": [1, 0, 0, 0, 0.999743, -0.0226873],
  "ImageType": [
    "ORIGINAL",
    "PRIMARY",
    "M",
    "ND",
    "MOSAIC"
],
  "ImagingFrequency": 123.218,
  "InPlanePhaseEncodingDirectionDICOM": "COL",
  "InstitutionAddress": "Univeristy_Ave._197_Newark_North_East_US_07102-1814",
  "InstitutionName": "RUBIC",
  "InstitutionalDepartmentName": "Department",
  "MRAcquisitionType": "2D",
  "MagneticFieldStrength": 3,
  "Manufacturer": "Siemens",
  "ManufacturersModelName": "TrioTim",
  "Modality": "MR",
  "PartialFourier": 1,
  "PatientPosition": "HFS",
  "PercentPhaseFOV": 100,
  "PhaseEncodingDirection": "j-",
  "PhaseEncodingSteps": 68,
  "PhaseResolution": 1,
  "PixelBandwidth": 2451,
  "ProcedureStepDescription": "Krekelberg_David",
  "ProtocolName": "ep2d_bold_RestEPI_1",
  "PulseSequenceDetails": "%SiemensSeq%_ep2d_bold",
  "ReceiveCoilName": "HeadMatrix",
  "ReconMatrixPE": 68,
  "RepetitionTime": 2,
  "SAR": 0.17302,
  "ScanOptions": "FS",
  "ScanningSequence": "EP",
  "SequenceName": "_epfid2d1_68",
  "SequenceVariant": "SK",
  "SeriesDescription": "ep2d_bold_RestEPI_1",
  "SeriesNumber": 8,
  "ShimSetting": [1927, -647, -7593, 724, -3, 3, -22, 32],
  "SliceThickness": 2.5,
  "SliceTiming": [1.95, 1.895, 1.84, 1.785, 1.7275, 1.6725, 1.6175, 1.56, 1.505, 1.45, 1.3925, 1.3375, 1.2825, 1.225, 1.17, 1.115, 1.06, 1.0025, 0.9475, 0.8925, 0.835, 0.78, 0.725, 0.6675, 0.6125, 0.5575, 0.5, 0.445, 0.39, 0.335, 0.2775, 0.2225, 0.1675, 0.11, 0.055, 0],
  "SoftwareVersions": "syngo_MR_B19",
  "SpacingBetweenSlices": 3,
  "StationName": "MRC35450",
  "TaskName": "rest",
  "TotalReadoutTime": 0.0314901,
  "TxRefAmp": 334.055,
  "dcmmeta_affine": [
    [-3.0, 0.0, 0.0, 98.61016845703125],
    [0.0, 2.99922776222229, -0.06806199997663498, -70.66478729248047],
    [0.0, 0.06806199997663498, 2.99922776222229, -45.918975830078125],
    [0.0, 0.0, 0.0, 1.0]
],
  "dcmmeta_reorient_transform": [
    [0.0, -1.0, 0.0, 67.0],
    [1.0, 0.0, 0.0, 0.0],
    [0.0, 0.0, 1.0, 0.0],
    [0.0, 0.0, 0.0, 1.0]
],
  "dcmmeta_shape": [68, 68, 36, 240],
  "dcmmeta_slice_dim": 2,
  "dcmmeta_version": 0.6,
  "global": {
    "const": {
      "AcquisitionMatrix": [68, 0, 0, 68],
      "AngioFlag": "N",
      "BitsAllocated": 16,
      "BitsStored": 12,
      "Columns": 408,
      "EchoNumbers": 1,
      "EchoTime": 23.0,
      "EchoTrainLength": 1,
      "FlipAngle": 76.0,
      "HighBit": 11,
      "ImageOrientationPatient": [1.0, 0.0, 0.0, 0.0, 0.99974260931238, -0.0226873340276],
      "ImagePositionPatient": [-608.61016941071, -640.15220742896, -29.788279431571],
      "ImageType": [
        "ORIGINAL",
        "PRIMARY",
        "M",
        "ND",
        "MOSAIC"
],
      "ImagedNucleus": "1H",
      "ImagingFrequency": 123.218454,
      "InPlanePhaseEncodingDirection": "COL",
      "MRAcquisitionType": "2D",
      "MagneticFieldStrength": 3.0,
      "Manufacturer": "SIEMENS",
      "ManufacturerModelName": "TrioTim",
      "Modality": "MR",
      "NumberOfAverages": 1.0,
      "NumberOfPhaseEncodingSteps": 68,
      "PercentPhaseFieldOfView": 100.0,
      "PercentSampling": 100.0,
      "PerformedProcedureStepStartTime": "104611.937000",
      "PhotometricInterpretation": "MONOCHROME2",
      "PixelBandwidth": 2451.0,
      "PixelRepresentation": 0,
      "PixelSpacing": [3.0, 3.0],
      "ProtocolName": "ep2d_bold_RestEPI_1",
      "RepetitionTime": 2000.0,
      "Rows": 408,
      "SAR": 0.17302047549429,
      "SamplesPerPixel": 1,
      "ScanOptions": "FS",
      "ScanningSequence": "EP",
      "SequenceName": "*epfid2d1_68",
      "SequenceVariant": "SK",
      "SeriesDescription": "ep2d_bold_RestEPI_1",
      "SeriesNumber": 8,
      "SeriesTime": "111947.031000",
      "SliceLocation": -44.303959164274,
      "SliceThickness": 2.5,
      "SmallestImagePixelValue": 0,
      "SoftwareVersions": "syngo MR B19",
      "SpacingBetweenSlices": 2.999999969363,
      "SpecificCharacterSet": "ISO_IR 100",
      "StudyID": "1",
      "StudyTime": "104611.828000",
      "TransmitCoilName": "Body",
      "VariableFlipAngleFlag": "N",
      "WindowCenterWidthExplanation": "Algo1",
      "dBdt": 0.0},
    "slices": {}
  },
  "time": {
    "samples": {
      "AcquisitionNumber": [1, 2, 3, 4, 5, 6, 7, 8, 9, 10, 11, 12, 13, 14, 15, 16, 17, 18, 19, 20, 21, 22, 23, 24, 25, 26, 27, 28, 29, 30, 31, 32, 33, 34, 35, 36, 37, 38, 39, 40, 41, 42, 43, 44, 45, 46, 47, 48, 49, 50, 51, 52, 53, 54, 55, 56, 57, 58, 59, 60, 61, 62, 63, 64, 65, 66, 67, 68, 69, 70, 71, 72, 73, 74, 75, 76, 77, 78, 79, 80, 81, 82, 83, 84, 85, 86, 87, 88, 89, 90, 91, 92, 93, 94, 95, 96, 97, 98, 99, 100, 101, 102, 103, 104, 105, 106, 107, 108, 109, 110, 111, 112, 113, 114, 115, 116, 117, 118, 119, 120, 121, 122, 123, 124, 125, 126, 127, 128, 129, 130, 131, 132, 133, 134, 135, 136, 137, 138, 139, 140, 141, 142, 143, 144, 145, 146, 147, 148, 149, 150, 151, 152, 153, 154, 155, 156, 157, 158, 159, 160, 161, 162, 163, 164, 165, 166, 167, 168, 169, 170, 171, 172, 173, 174, 175, 176, 177, 178, 179, 180, 181, 182, 183, 184, 185, 186, 187, 188, 189, 190, 191, 192, 193, 194, 195, 196, 197, 198, 199, 200, 201, 202, 203, 204, 205, 206, 207, 208, 209, 210, 211, 212, 213, 214, 215, 216, 217, 218, 219, 220, 221, 222, 223, 224, 225, 226, 227, 228, 229, 230, 231, 232, 233, 234, 235, 236, 237, 238, 239, 240],
      "AcquisitionTime": ["111901.755000", "111903.765000", "111905.772500", "111907.780000", "111909.787500", "111911.795000", "111913.805000", "111915.812500", "111917.820000", "111919.827500", "111921.837500", "111923.845000", "111925.852500", "111927.860000", "111929.867500", "111931.877500", "111933.885000", "111935.892500", "111937.900000", "111939.907500", "111941.917500", "111943.925000", "111945.932500", "111947.940000", "111949.950000", "111951.957500", "111953.965000", "111955.972500", "111957.980000", "111959.990000", "112001.997500", "112004.005000", "112006.012500", "112008.020000", "112010.030000", "112012.037500", "112014.045000", "112016.052500", "112018.062500", "112020.070000", "112022.077500", "112024.085000", "112026.092500", "112028.102500", "112030.110000", "112032.117500", "112034.125000", "112036.132500", "112038.142500", "112040.150000", "112042.157500", "112044.165000", "112046.175000", "112048.182500", "112050.190000", "112052.197500", "112054.205000", "112056.215000", "112058.222500", "112100.230000", "112102.237500", "112104.245000", "112106.255000", "112108.262500", "112110.270000", "112112.277500", "112114.285000", "112116.295000", "112118.302500", "112120.310000", "112122.317500", "112124.327500", "112126.335000", "112128.342500", "112130.350000", "112132.357500", "112134.367500", "112136.375000", "112138.382500", "112140.390000", "112142.397500", "112144.407500", "112146.415000", "112148.422500", "112150.430000", "112152.440000", "112154.447500", "112156.455000", "112158.462500", "112200.470000", "112202.480000", "112204.487500", "112206.495000", "112208.502500", "112210.510000", "112212.520000", "112214.527500", "112216.535000", "112218.542500", "112220.552500", "112222.560000", "112224.567500", "112226.575000", "112228.582500", "112230.592500", "112232.600000", "112234.607500", "112236.615000", "112238.622500", "112240.632500", "112242.640000", "112244.647500", "112246.655000", "112248.662500", "112250.672500", "112252.680000", "112254.687500", "112256.695000", "112258.705000", "112300.712500", "112302.720000", "112304.727500", "112306.735000", "112308.745000", "112310.752500", "112312.760000", "112314.767500", "112316.775000", "112318.785000", "112320.792500", "112322.800000", "112324.807500", "112326.817500", "112328.825000", "112330.832500", "112332.840000", "112334.847500", "112336.857500", "112338.865000", "112340.872500", "112342.880000", "112344.887500", "112346.897500", "112348.905000", "112350.912500", "112352.920000", "112354.930000", "112356.937500", "112358.945000", "112400.952500", "112402.960000", "112404.970000", "112406.977500", "112408.985000", "112410.992500", "112413.000000", "112415.010000", "112417.017500", "112419.025000", "112421.032500", "112423.040000", "112425.050000", "112427.057500", "112429.065000", "112431.072500", "112433.082500", "112435.090000", "112437.097500", "112439.105000", "112441.112500", "112443.122500", "112445.130000", "112447.137500", "112449.145000", "112451.152500", "112453.162500", "112455.170000", "112457.177500", "112459.185000", "112501.195000", "112503.202500", "112505.210000", "112507.217500", "112509.225000", "112511.235000", "112513.242500", "112515.250000", "112517.257500", "112519.265000", "112521.275000", "112523.282500", "112525.290000", "112527.297500", "112529.307500", "112531.315000", "112533.322500", "112535.330000", "112537.337500", "112539.347500", "112541.355000", "112543.362500", "112545.370000", "112547.377500", "112549.387500", "112551.395000", "112553.402500", "112555.410000", "112557.417500", "112559.427500", "112601.435000", "112603.442500", "112605.450000", "112607.460000", "112609.467500", "112611.475000", "112613.482500", "112615.490000", "112617.500000", "112619.507500", "112621.515000", "112623.522500", "112625.530000", "112627.540000", "112629.547500", "112631.555000", "112633.562500", "112635.572500", "112637.580000", "112639.587500", "112641.595000", "112643.602500", "112645.612500", "112647.620000", "112649.627500", "112651.635000", "112653.642500", "112655.652500", "112657.660000", "112659.667500", "112701.675000"],
      "ContentTime": ["111947.031000", "111947.031000", "111947.031000", "111947.046000", "111947.046000", "111947.046000", "111947.046000", "111947.046000", "111947.046000", "111947.046000", "111947.062000", "111947.062000", "111947.062000", "111947.062000", "111947.062000", "111947.062000", "111947.062000", "111947.078000", "111947.078000", "111947.078000", "111947.078000", "111947.078000", "111947.078000", "112027.031000", "112027.031000", "112027.031000", "112027.031000", "112027.031000", "112027.046000", "112027.046000", "112027.046000", "112027.046000", "112027.046000", "112027.046000", "112027.046000", "112027.046000", "112027.062000", "112027.062000", "112027.062000", "112027.062000", "112027.062000", "112027.062000", "112027.062000", "112107.031000", "112107.031000", "112107.031000", "112107.031000", "112107.031000", "112107.046000", "112107.046000", "112107.046000", "112107.046000", "112107.046000", "112107.046000", "112107.046000", "112107.046000", "112107.062000", "112107.062000", "112107.062000", "112107.062000", "112107.062000", "112107.062000", "112107.062000", "112147.031000", "112147.031000", "112147.031000", "112147.031000", "112147.031000", "112147.046000", "112147.046000", "112147.046000", "112147.046000", "112147.046000", "112147.046000", "112147.046000", "112147.046000", "112147.062000", "112147.062000", "112147.062000", "112147.062000", "112147.062000", "112147.062000", "112147.062000", "112227.031000", "112227.031000", "112227.031000", "112227.031000", "112227.031000", "112227.046000", "112227.046000", "112227.046000", "112227.046000", "112227.046000", "112227.046000", "112227.046000", "112227.046000", "112227.062000", "112227.062000", "112227.062000", "112227.062000", "112227.062000", "112227.078000", "112227.078000", "112307.031000", "112307.031000", "112307.031000", "112307.031000", "112307.031000", "112307.046000", "112307.046000", "112307.046000", "112307.046000", "112307.046000", "112307.046000", "112307.046000", "112307.062000", "112307.062000", "112307.062000", "112307.062000", "112307.062000", "112307.062000", "112307.062000", "112307.062000", "112347.031000", "112347.031000", "112347.031000", "112347.031000", "112347.031000", "112347.046000", "112347.046000", "112347.046000", "112347.046000", "112347.046000", "112347.046000", "112347.046000", "112347.046000", "112347.062000", "112347.062000", "112347.062000", "112347.062000", "112347.062000", "112347.062000", "112347.062000", "112427.031000", "112427.031000", "112427.031000", "112427.031000", "112427.031000", "112427.046000", "112427.046000", "112427.046000", "112427.046000", "112427.046000", "112427.046000", "112427.046000", "112427.046000", "112427.062000", "112427.062000", "112427.062000", "112427.062000", "112427.062000", "112427.062000", "112427.062000", "112507.031000", "112507.031000", "112507.031000", "112507.031000", "112507.031000", "112507.046000", "112507.046000", "112507.046000", "112507.046000", "112507.046000", "112507.046000", "112507.046000", "112507.062000", "112507.062000", "112507.062000", "112507.062000", "112507.062000", "112507.078000", "112507.078000", "112507.078000", "112547.031000", "112547.031000", "112547.031000", "112547.031000", "112547.031000", "112547.046000", "112547.046000", "112547.046000", "112547.046000", "112547.046000", "112547.046000", "112547.046000", "112547.046000", "112547.062000", "112547.062000", "112547.062000", "112547.062000", "112547.062000", "112547.062000", "112547.062000", "112627.031000", "112627.031000", "112627.031000", "112627.031000", "112627.031000", "112627.046000", "112627.046000", "112627.046000", "112627.046000", "112627.046000", "112627.046000", "112627.046000", "112627.046000", "112627.062000", "112627.062000", "112627.062000", "112627.062000", "112627.062000", "112627.062000", "112627.062000", "112700.453000", "112700.453000", "112700.468000", "112700.468000", "112700.468000", "112700.468000", "112700.468000", "112700.468000", "112700.484000", "112700.484000", "112700.484000", "112700.484000", "112700.484000", "112700.484000", "112700.484000", "112700.484000", "112700.500000"],
      "InstanceCreationTime": ["111947.031000", "111947.031000", "111947.031000", "111947.046000", "111947.046000", "111947.046000", "111947.046000", "111947.046000", "111947.046000", "111947.046000", "111947.062000", "111947.062000", "111947.062000", "111947.062000", "111947.062000", "111947.062000", "111947.062000", "111947.078000", "111947.078000", "111947.078000", "111947.078000", "111947.078000", "111947.078000", "112027.031000", "112027.031000", "112027.031000", "112027.031000", "112027.031000", "112027.046000", "112027.046000", "112027.046000", "112027.046000", "112027.046000", "112027.046000", "112027.046000", "112027.046000", "112027.062000", "112027.062000", "112027.062000", "112027.062000", "112027.062000", "112027.062000", "112027.062000", "112107.031000", "112107.031000", "112107.031000", "112107.031000", "112107.031000", "112107.046000", "112107.046000", "112107.046000", "112107.046000", "112107.046000", "112107.046000", "112107.046000", "112107.046000", "112107.062000", "112107.062000", "112107.062000", "112107.062000", "112107.062000", "112107.062000", "112107.062000", "112147.031000", "112147.031000", "112147.031000", "112147.031000", "112147.031000", "112147.046000", "112147.046000", "112147.046000", "112147.046000", "112147.046000", "112147.046000", "112147.046000", "112147.046000", "112147.062000", "112147.062000", "112147.062000", "112147.062000", "112147.062000", "112147.062000", "112147.062000", "112227.031000", "112227.031000", "112227.031000", "112227.031000", "112227.031000", "112227.046000", "112227.046000", "112227.046000", "112227.046000", "112227.046000", "112227.046000", "112227.046000", "112227.046000", "112227.062000", "112227.062000", "112227.062000", "112227.062000", "112227.062000", "112227.078000", "112227.078000", "112307.031000", "112307.031000", "112307.031000", "112307.031000", "112307.031000", "112307.046000", "112307.046000", "112307.046000", "112307.046000", "112307.046000", "112307.046000", "112307.046000", "112307.062000", "112307.062000", "112307.062000", "112307.062000", "112307.062000", "112307.062000", "112307.062000", "112307.062000", "112347.031000", "112347.031000", "112347.031000", "112347.031000", "112347.031000", "112347.046000", "112347.046000", "112347.046000", "112347.046000", "112347.046000", "112347.046000", "112347.046000", "112347.046000", "112347.062000", "112347.062000", "112347.062000", "112347.062000", "112347.062000", "112347.062000", "112347.062000", "112427.031000", "112427.031000", "112427.031000", "112427.031000", "112427.031000", "112427.046000", "112427.046000", "112427.046000", "112427.046000", "112427.046000", "112427.046000", "112427.046000", "112427.046000", "112427.062000", "112427.062000", "112427.062000", "112427.062000", "112427.062000", "112427.062000", "112427.062000", "112507.031000", "112507.031000", "112507.031000", "112507.031000", "112507.031000", "112507.046000", "112507.046000", "112507.046000", "112507.046000", "112507.046000", "112507.046000", "112507.046000", "112507.062000", "112507.062000", "112507.062000", "112507.062000", "112507.062000", "112507.078000", "112507.078000", "112507.078000", "112547.031000", "112547.031000", "112547.031000", "112547.031000", "112547.031000", "112547.046000", "112547.046000", "112547.046000", "112547.046000", "112547.046000", "112547.046000", "112547.046000", "112547.046000", "112547.062000", "112547.062000", "112547.062000", "112547.062000", "112547.062000", "112547.062000", "112547.062000", "112627.031000", "112627.031000", "112627.031000", "112627.031000", "112627.031000", "112627.046000", "112627.046000", "112627.046000", "112627.046000", "112627.046000", "112627.046000", "112627.046000", "112627.046000", "112627.062000", "112627.062000", "112627.062000", "112627.062000", "112627.062000", "112627.062000", "112627.062000", "112700.453000", "112700.453000", "112700.468000", "112700.468000", "112700.468000", "112700.468000", "112700.468000", "112700.468000", "112700.484000", "112700.484000", "112700.484000", "112700.484000", "112700.484000", "112700.484000", "112700.484000", "112700.484000", "112700.500000"],
      "InstanceNumber": [1, 2, 3, 4, 5, 6, 7, 8, 9, 10, 11, 12, 13, 14, 15, 16, 17, 18, 19, 20, 21, 22, 23, 24, 25, 26, 27, 28, 29, 30, 31, 32, 33, 34, 35, 36, 37, 38, 39, 40, 41, 42, 43, 44, 45, 46, 47, 48, 49, 50, 51, 52, 53, 54, 55, 56, 57, 58, 59, 60, 61, 62, 63, 64, 65, 66, 67, 68, 69, 70, 71, 72, 73, 74, 75, 76, 77, 78, 79, 80, 81, 82, 83, 84, 85, 86, 87, 88, 89, 90, 91, 92, 93, 94, 95, 96, 97, 98, 99, 100, 101, 102, 103, 104, 105, 106, 107, 108, 109, 110, 111, 112, 113, 114, 115, 116, 117, 118, 119, 120, 121, 122, 123, 124, 125, 126, 127, 128, 129, 130, 131, 132, 133, 134, 135, 136, 137, 138, 139, 140, 141, 142, 143, 144, 145, 146, 147, 148, 149, 150, 151, 152, 153, 154, 155, 156, 157, 158, 159, 160, 161, 162, 163, 164, 165, 166, 167, 168, 169, 170, 171, 172, 173, 174, 175, 176, 177, 178, 179, 180, 181, 182, 183, 184, 185, 186, 187, 188, 189, 190, 191, 192, 193, 194, 195, 196, 197, 198, 199, 200, 201, 202, 203, 204, 205, 206, 207, 208, 209, 210, 211, 212, 213, 214, 215, 216, 217, 218, 219, 220, 221, 222, 223, 224, 225, 226, 227, 228, 229, 230, 231, 232, 233, 234, 235, 236, 237, 238, 239, 240],
      "LargestImagePixelValue": [1742, 1655, 1648, 1640, 1607, 1625, 1619, 1636, 1627, 1617, 1633, 1611, 1650, 1640, 1641, 1646, 1600, 1633, 1626, 1641, 1637, 1622, 1661, 1624, 1623, 1639, 1613, 1606, 1631, 1602, 1636, 1609, 1618, 1607, 1606, 1615, 1607, 1631, 1658, 1652, 1630, 1615, 1627, 1600, 1600, 1630, 1620, 1632, 1614, 1649, 1604, 1645, 1630, 1626, 1625, 1618, 1640, 1611, 1638, 1667, 1621, 1665, 1639, 1637, 1684, 1672, 1672, 1679, 1684, 1711, 1706, 1686, 1678, 1696, 1667, 1671, 1686, 1693, 1678, 1701, 1671, 1702, 1688, 1695, 1674, 1696, 1702, 1690, 1699, 1667, 1688, 1683, 1731, 1694, 1711, 1713, 1708, 1677, 1692, 1758, 1684, 1717, 1703, 1699, 1700, 1692, 1662, 1670, 1690, 1696, 1682, 1707, 1692, 1671, 1692, 1691, 1690, 1680, 1677, 1691, 1665, 1680, 1671, 1648, 1662, 1660, 1682, 1665, 1654, 1677, 1660, 1665, 1645, 1665, 1675, 1643, 1656, 1666, 1664, 1662, 1669, 1679, 1701, 1662, 1670, 1663, 1648, 1648, 1666, 1700, 1708, 1687, 1697, 1699, 1674, 1710, 1715, 1668, 1711, 1700, 1697, 1669, 1681, 1698, 1671, 1701, 1668, 1678, 1677, 1672, 1676, 1686, 1676, 1693, 1709, 1659, 1705, 1704, 1700, 1682, 1692, 1682, 1671, 1654, 1775, 1677, 1656, 1708, 1653, 1667, 1671, 1630, 1667, 1646, 1692, 1613, 1652, 1625, 1614, 1625, 1633, 1637, 1630, 1597, 1596, 1631, 1585, 1590, 1621, 1662, 1663, 1651, 1664, 1629, 1688, 1627, 1645, 1655, 1629, 1614, 1630, 1624, 1611, 1600, 1590, 1580, 1609, 1598, 1561, 1588, 1587, 1568, 1602, 1571, 1599, 1581, 1599, 1584, 1586, 1592],
      "WindowCenter": [780.0, 776.0, 775.0, 774.0, 773.0, 773.0, 774.0, 774.0, 773.0, 773.0, 774.0, 774.0, 774.0, 775.0, 775.0, 775.0, 774.0, 774.0, 774.0, 774.0, 775.0, 774.0, 775.0, 774.0, 774.0, 775.0, 775.0, 776.0, 776.0, 775.0, 776.0, 776.0, 776.0, 776.0, 775.0, 775.0, 775.0, 776.0, 776.0, 776.0, 776.0, 776.0, 776.0, 775.0, 775.0, 775.0, 775.0, 775.0, 775.0, 776.0, 775.0, 776.0, 777.0, 778.0, 778.0, 778.0, 778.0, 777.0, 778.0, 778.0, 778.0, 777.0, 777.0, 776.0, 777.0, 779.0, 779.0, 780.0, 779.0, 779.0, 779.0, 779.0, 779.0, 778.0, 777.0, 776.0, 777.0, 777.0, 777.0, 779.0, 779.0, 780.0, 781.0, 780.0, 780.0, 779.0, 780.0, 780.0, 779.0, 779.0, 778.0, 778.0, 779.0, 778.0, 778.0, 778.0, 778.0, 777.0, 777.0, 778.0, 778.0, 780.0, 780.0, 780.0, 781.0, 783.0, 782.0, 783.0, 784.0, 783.0, 783.0, 782.0, 781.0, 780.0, 780.0, 779.0, 778.0, 778.0, 778.0, 778.0, 778.0, 778.0, 778.0, 777.0, 778.0, 778.0, 778.0, 778.0, 778.0, 779.0, 779.0, 779.0, 779.0, 779.0, 780.0, 779.0, 780.0, 780.0, 781.0, 781.0, 781.0, 781.0, 781.0, 781.0, 780.0, 780.0, 779.0, 779.0, 779.0, 779.0, 779.0, 779.0, 780.0, 781.0, 783.0, 784.0, 784.0, 783.0, 784.0, 782.0, 781.0, 780.0, 781.0, 782.0, 782.0, 783.0, 782.0, 781.0, 780.0, 779.0, 779.0, 779.0, 780.0, 779.0, 779.0, 778.0, 779.0, 779.0, 780.0, 781.0, 782.0, 784.0, 783.0, 782.0, 783.0, 782.0, 783.0, 783.0, 783.0, 782.0, 782.0, 781.0, 781.0, 782.0, 783.0, 780.0, 780.0, 780.0, 779.0, 779.0, 780.0, 780.0, 780.0, 780.0, 780.0, 779.0, 779.0, 779.0, 780.0, 781.0, 782.0, 783.0, 784.0, 785.0, 785.0, 784.0, 783.0, 783.0, 782.0, 781.0, 782.0, 782.0, 783.0, 783.0, 782.0, 783.0, 783.0, 782.0, 781.0, 781.0, 780.0, 780.0, 780.0, 780.0, 780.0, 780.0, 780.0, 780.0, 781.0, 781.0],
      "WindowWidth": [1640.0, 1630.0, 1625.0, 1624.0, 1621.0, 1622.0, 1624.0, 1623.0, 1621.0, 1622.0, 1622.0, 1622.0, 1624.0, 1625.0, 1627.0, 1626.0, 1624.0, 1623.0, 1623.0, 1624.0, 1626.0, 1624.0, 1626.0, 1623.0, 1624.0, 1625.0, 1627.0, 1627.0, 1628.0, 1627.0, 1627.0, 1628.0, 1627.0, 1627.0, 1625.0, 1625.0, 1626.0, 1627.0, 1628.0, 1629.0, 1628.0, 1628.0, 1628.0, 1626.0, 1626.0, 1626.0, 1627.0, 1626.0, 1627.0, 1627.0, 1626.0, 1630.0, 1631.0, 1633.0, 1634.0, 1633.0, 1632.0, 1632.0, 1633.0, 1633.0, 1633.0, 1632.0, 1630.0, 1629.0, 1632.0, 1636.0, 1636.0, 1638.0, 1637.0, 1636.0, 1635.0, 1636.0, 1635.0, 1633.0, 1630.0, 1629.0, 1631.0, 1632.0, 1632.0, 1636.0, 1637.0, 1639.0, 1640.0, 1640.0, 1638.0, 1636.0, 1639.0, 1638.0, 1637.0, 1636.0, 1634.0, 1634.0, 1635.0, 1635.0, 1633.0, 1634.0, 1633.0, 1631.0, 1632.0, 1634.0, 1634.0, 1638.0, 1639.0, 1640.0, 1642.0, 1646.0, 1644.0, 1646.0, 1648.0, 1646.0, 1645.0, 1644.0, 1640.0, 1638.0, 1638.0, 1637.0, 1635.0, 1635.0, 1634.0, 1634.0, 1634.0, 1634.0, 1634.0, 1632.0, 1633.0, 1633.0, 1634.0, 1635.0, 1634.0, 1636.0, 1636.0, 1636.0, 1637.0, 1636.0, 1638.0, 1637.0, 1639.0, 1639.0, 1641.0, 1642.0, 1643.0, 1642.0, 1641.0, 1640.0, 1639.0, 1638.0, 1638.0, 1637.0, 1637.0, 1637.0, 1638.0, 1638.0, 1639.0, 1642.0, 1646.0, 1649.0, 1649.0, 1647.0, 1648.0, 1644.0, 1643.0, 1640.0, 1642.0, 1644.0, 1645.0, 1646.0, 1644.0, 1641.0, 1639.0, 1637.0, 1637.0, 1637.0, 1639.0, 1637.0, 1636.0, 1635.0, 1636.0, 1638.0, 1639.0, 1641.0, 1644.0, 1648.0, 1646.0, 1643.0, 1646.0, 1644.0, 1646.0, 1648.0, 1647.0, 1645.0, 1644.0, 1641.0, 1642.0, 1643.0, 1646.0, 1639.0, 1639.0, 1638.0, 1636.0, 1637.0, 1638.0, 1639.0, 1639.0, 1639.0, 1638.0, 1637.0, 1637.0, 1637.0, 1639.0, 1642.0, 1643.0, 1646.0, 1649.0, 1650.0, 1652.0, 1649.0, 1646.0, 1645.0, 1643.0, 1642.0, 1643.0, 1645.0, 1646.0, 1646.0, 1645.0, 1646.0, 1646.0, 1644.0, 1641.0, 1641.0, 1640.0, 1639.0, 1638.0, 1639.0, 1639.0, 1639.0, 1640.0, 1640.0, 1641.0, 1641.0]
    },
    "slices": {}
  }
}