{
  "AcquisitionMatrixPE": 68,
  "AcquisitionNumber": 1,
  "AcquisitionTime": "11:28:22.777500",
  "BandwidthPerPixelPhaseEncode": 31.289,
  "BaseResolution": 68,
  "CoilString": "C:HEA;HEP",
  "ConversionSoftware": "dcm2niix",
  "ConversionSoftwareVersion": "v1.0.20190902",
  "DerivedVendorReportedEchoSpacing": 0.000470002,
  "DeviceSerialNumber": "35450",
  "DwellTime": 3e-06,
  "EchoTime": 0.023,
  "EffectiveEchoSpacing": 0.000470002,
  "FlipAngle": 76,
  "ImageOrientationPatientDICOM": [1, 0, 0, 0, 0.999743, -0.0226873],
  "ImageType": [
    "ORIGINAL",
    "PRIMARY",
    "M",
    "ND",
    "MOSAIC"
],
  "ImagingFrequency": 123.218,
  "InPlanePhaseEncodingDirectionDICOM": "COL",
  "InstitutionAddress": "Univeristy_Ave._197_Newark_North_East_US_07102-1814",
  "InstitutionName": "RUBIC",
  "InstitutionalDepartmentName": "Department",
  "MRAcquisitionType": "2D",
  "MagneticFieldStrength": 3,
  "Manufacturer": "Siemens",
  "ManufacturersModelName": "TrioTim",
  "Modality": "MR",
  "PartialFourier": 1,
  "PatientPosition": "HFS",
  "PercentPhaseFOV": 100,
  "PhaseEncodingDirection": "j-",
  "PhaseEncodingSteps": 68,
  "PhaseResolution": 1,
  "PixelBandwidth": 2451,
  "ProcedureStepDescription": "Krekelberg_David",
  "ProtocolName": "ep2d_bold_CardGameEPI_2",
  "PulseSequenceDetails": "%SiemensSeq%_ep2d_bold",
  "ReceiveCoilName": "HeadMatrix",
  "ReconMatrixPE": 68,
  "RepetitionTime": 2,
  "SAR": 0.173057,
  "ScanOptions": "FS",
  "ScanningSequence": "EP",
  "SequenceName": "_epfid2d1_68",
  "SequenceVariant": "SK",
  "SeriesDescription": "ep2d_bold_CardGameEPI_2",
  "SeriesNumber": 9,
  "ShimSetting": [1927, -647, -7593, 724, -3, 3, -22, 32],
  "SliceThickness": 2.5,
  "SliceTiming": [1.9525, 1.8975, 1.84, 1.785, 1.73, 1.6725, 1.6175, 1.5625, 1.505, 1.45, 1.395, 1.34, 1.2825, 1.2275, 1.1725, 1.115, 1.06, 1.005, 0.9475, 0.8925, 0.8375, 0.7825, 0.725, 0.67, 0.615, 0.5575, 0.5025, 0.4475, 0.39, 0.335, 0.28, 0.2225, 0.1675, 0.1125, 0.0575, 0],
  "SoftwareVersions": "syngo_MR_B19",
  "SpacingBetweenSlices": 3,
  "StationName": "MRC35450",
  "TaskName": "cardgame",
  "TotalReadoutTime": 0.0314901,
  "TxRefAmp": 334.055,
  "dcmmeta_affine": [
    [-3.0, 0.0, 0.0, 98.61016845703125],
    [0.0, 2.99922776222229, -0.06806199997663498, -70.66478729248047],
    [0.0, 0.06806199997663498, 2.99922776222229, -45.918975830078125],
    [0.0, 0.0, 0.0, 1.0]
],
  "dcmmeta_reorient_transform": [
    [0.0, -1.0, 0.0, 67.0],
    [1.0, 0.0, 0.0, 0.0],
    [0.0, 0.0, 1.0, 0.0],
    [0.0, 0.0, 0.0, 1.0]
],
  "dcmmeta_shape": [68, 68, 36, 258],
  "dcmmeta_slice_dim": 2,
  "dcmmeta_version": 0.6,
  "global": {
    "const": {
      "AcquisitionMatrix": [68, 0, 0, 68],
      "AngioFlag": "N",
      "BitsAllocated": 16,
      "BitsStored": 12,
      "Columns": 408,
      "EchoNumbers": 1,
      "EchoTime": 23.0,
      "EchoTrainLength": 1,
      "FlipAngle": 76.0,
      "HighBit": 11,
      "ImageOrientationPatient": [1.0, 0.0, 0.0, 0.0, 0.99974260931238, -0.0226873340276],
      "ImagePositionPatient": [-608.61016941071, -640.15220742896, -29.788279431571],
      "ImageType": [
        "ORIGINAL",
        "PRIMARY",
        "M",
        "ND",
        "MOSAIC"
],
      "ImagedNucleus": "1H",
      "ImagingFrequency": 123.21848,
      "InPlanePhaseEncodingDirection": "COL",
      "MRAcquisitionType": "2D",
      "MagneticFieldStrength": 3.0,
      "Manufacturer": "SIEMENS",
      "ManufacturerModelName": "TrioTim",
      "Modality": "MR",
      "NumberOfAverages": 1.0,
      "NumberOfPhaseEncodingSteps": 68,
      "PercentPhaseFieldOfView": 100.0,
      "PercentSampling": 100.0,
      "PerformedProcedureStepStartTime": "104611.937000",
      "PhotometricInterpretation": "MONOCHROME2",
      "PixelBandwidth": 2451.0,
      "PixelRepresentation": 0,
      "PixelSpacing": [3.0, 3.0],
      "ProtocolName": "ep2d_bold_CardGameEPI_2",
      "RepetitionTime": 2000.0,
      "Rows": 408,
      "SAR": 0.17305749167329,
      "SamplesPerPixel": 1,
      "ScanOptions": "FS",
      "ScanningSequence": "EP",
      "SequenceName": "*epfid2d1_68",
      "SequenceVariant": "SK",
      "SeriesDescription": "ep2d_bold_CardGameEPI_2",
      "SeriesNumber": 9,
      "SeriesTime": "112907.062000",
      "SliceLocation": -44.303959164274,
      "SliceThickness": 2.5,
      "SmallestImagePixelValue": 0,
      "SoftwareVersions": "syngo MR B19",
      "SpacingBetweenSlices": 2.999999969363,
      "SpecificCharacterSet": "ISO_IR 100",
      "StudyID": "1",
      "StudyTime": "104611.828000",
      "TransmitCoilName": "Body",
      "VariableFlipAngleFlag": "N",
      "WindowCenterWidthExplanation": "Algo1",
      "dBdt": 0.0},
    "slices": {}
  },
  "time": {
    "samples": {
      "AcquisitionNumber": [1, 2, 3, 4, 5, 6, 7, 8, 9, 10, 11, 12, 13, 14, 15, 16, 17, 18, 19, 20, 21, 22, 23, 24, 25, 26, 27, 28, 29, 30, 31, 32, 33, 34, 35, 36, 37, 38, 39, 40, 41, 42, 43, 44, 45, 46, 47, 48, 49, 50, 51, 52, 53, 54, 55, 56, 57, 58, 59, 60, 61, 62, 63, 64, 65, 66, 67, 68, 69, 70, 71, 72, 73, 74, 75, 76, 77, 78, 79, 80, 81, 82, 83, 84, 85, 86, 87, 88, 89, 90, 91, 92, 93, 94, 95, 96, 97, 98, 99, 100, 101, 102, 103, 104, 105, 106, 107, 108, 109, 110, 111, 112, 113, 114, 115, 116, 117, 118, 119, 120, 121, 122, 123, 124, 125, 126, 127, 128, 129, 130, 131, 132, 133, 134, 135, 136, 137, 138, 139, 140, 141, 142, 143, 144, 145, 146, 147, 148, 149, 150, 151, 152, 153, 154, 155, 156, 157, 158, 159, 160, 161, 162, 163, 164, 165, 166, 167, 168, 169, 170, 171, 172, 173, 174, 175, 176, 177, 178, 179, 180, 181, 182, 183, 184, 185, 186, 187, 188, 189, 190, 191, 192, 193, 194, 195, 196, 197, 198, 199, 200, 201, 202, 203, 204, 205, 206, 207, 208, 209, 210, 211, 212, 213, 214, 215, 216, 217, 218, 219, 220, 221, 222, 223, 224, 225, 226, 227, 228, 229, 230, 231, 232, 233, 234, 235, 236, 237, 238, 239, 240, 241, 242, 243, 244, 245, 246, 247, 248, 249, 250, 251, 252, 253, 254, 255, 256, 257, 258],
      "AcquisitionTime": ["112822.777500", "112824.785000", "112826.792500", "112828.802500", "112830.810000", "112832.817500", "112834.825000", "112836.832500", "112838.842500", "112840.850000", "112842.857500", "112844.865000", "112846.872500", "112848.882500", "112850.890000", "112852.897500", "112854.905000", "112856.915000", "112858.922500", "112900.930000", "112902.937500", "112904.945000", "112906.955000", "112908.962500", "112910.970000", "112912.977500", "112914.985000", "112916.995000", "112919.002500", "112921.010000", "112923.017500", "112925.027500", "112927.035000", "112929.042500", "112931.050000", "112933.057500", "112935.067500", "112937.075000", "112939.082500", "112941.090000", "112943.097500", "112945.107500", "112947.115000", "112949.122500", "112951.130000", "112953.137500", "112955.147500", "112957.155000", "112959.162500", "113001.170000", "113003.180000", "113005.187500", "113007.195000", "113009.202500", "113011.210000", "113013.220000", "113015.227500", "113017.235000", "113019.242500", "113021.250000", "113023.260000", "113025.267500", "113027.275000", "113029.282500", "113031.292500", "113033.300000", "113035.307500", "113037.315000", "113039.322500", "113041.332500", "113043.340000", "113045.347500", "113047.355000", "113049.362500", "113051.372500", "113053.380000", "113055.387500", "113057.395000", "113059.405000", "113101.412500", "113103.420000", "113105.427500", "113107.435000", "113109.445000", "113111.452500", "113113.460000", "113115.467500", "113117.475000", "113119.485000", "113121.492500", "113123.500000", "113125.507500", "113127.515000", "113129.525000", "113131.532500", "113133.540000", "113135.547500", "113137.557500", "113139.565000", "113141.572500", "113143.580000", "113145.587500", "113147.597500", "113149.605000", "113151.612500", "113153.620000", "113155.627500", "113157.637500", "113159.645000", "113201.652500", "113203.660000", "113205.670000", "113207.677500", "113209.685000", "113211.692500", "113213.700000", "113215.710000", "113217.717500", "113219.725000", "113221.732500", "113223.740000", "113225.750000", "113227.757500", "113229.765000", "113231.772500", "113233.782500", "113235.790000", "113237.797500", "113239.805000", "113241.812500", "113243.822500", "113245.830000", "113247.837500", "113249.845000", "113251.852500", "113253.862500", "113255.870000", "113257.877500", "113259.885000", "113301.892500", "113303.902500", "113305.910000", "113307.917500", "113309.925000", "113311.935000", "113313.942500", "113315.950000", "113317.957500", "113319.965000", "113321.975000", "113323.982500", "113325.990000", "113327.997500", "113330.005000", "113332.015000", "113334.022500", "113336.030000", "113338.037500", "113340.047500", "113342.055000", "113344.062500", "113346.070000", "113348.077500", "113350.087500", "113352.095000", "113354.102500", "113356.110000", "113358.117500", "113400.127500", "113402.135000", "113404.142500", "113406.150000", "113408.160000", "113410.167500", "113412.175000", "113414.182500", "113416.190000", "113418.200000", "113420.207500", "113422.215000", "113424.222500", "113426.230000", "113428.240000", "113430.247500", "113432.255000", "113434.262500", "113436.272500", "113438.280000", "113440.287500", "113442.295000", "113444.302500", "113446.312500", "113448.320000", "113450.327500", "113452.335000", "113454.342500", "113456.352500", "113458.360000", "113500.367500", "113502.375000", "113504.382500", "113506.392500", "113508.400000", "113510.407500", "113512.415000", "113514.425000", "113516.432500", "113518.440000", "113520.447500", "113522.455000", "113524.465000", "113526.472500", "113528.480000", "113530.487500", "113532.495000", "113534.505000", "113536.512500", "113538.520000", "113540.527500", "113542.537500", "113544.545000", "113546.552500", "113548.560000", "113550.567500", "113552.577500", "113554.585000", "113556.592500", "113558.600000", "113600.607500", "113602.617500", "113604.625000", "113606.632500", "113608.640000", "113610.650000", "113612.657500", "113614.665000", "113616.672500", "113618.680000", "113620.690000", "113622.697500", "113624.705000", "113626.712500", "113628.720000", "113630.730000", "113632.737500", "113634.745000", "113636.752500", "113638.760000", "113640.770000", "113642.777500", "113644.785000", "113646.792500", "113648.802500", "113650.810000", "113652.817500", "113654.825000", "113656.832500", "113658.842500"],
      "ContentTime": ["112907.062000", "112907.062000", "112907.062000", "112907.078000", "112907.078000", "112907.078000", "112907.078000", "112907.078000", "112907.093000", "112907.093000", "112907.093000", "112907.093000", "112907.093000", "112907.093000", "112907.093000", "112907.093000", "112907.109000", "112907.109000", "112907.109000", "112907.109000", "112907.109000", "112907.109000", "112947.062000", "112947.062000", "112947.062000", "112947.062000", "112947.062000", "112947.078000", "112947.078000", "112947.078000", "112947.078000", "112947.078000", "112947.078000", "112947.078000", "112947.078000", "112947.093000", "112947.093000", "112947.093000", "112947.093000", "112947.093000", "112947.093000", "112947.093000", "113027.062000", "113027.062000", "113027.062000", "113027.062000", "113027.062000", "113027.078000", "113027.078000", "113027.078000", "113027.078000", "113027.078000", "113027.078000", "113027.093000", "113027.093000", "113027.093000", "113027.093000", "113027.093000", "113027.093000", "113027.093000", "113027.109000", "113027.109000", "113107.062000", "113107.062000", "113107.062000", "113107.062000", "113107.062000", "113107.078000", "113107.078000", "113107.078000", "113107.078000", "113107.078000", "113107.078000", "113107.078000", "113107.078000", "113107.093000", "113107.093000", "113107.093000", "113107.093000", "113107.093000", "113107.093000", "113107.093000", "113147.062000", "113147.062000", "113147.062000", "113147.062000", "113147.062000", "113147.078000", "113147.078000", "113147.078000", "113147.078000", "113147.078000", "113147.078000", "113147.078000", "113147.078000", "113147.093000", "113147.093000", "113147.093000", "113147.093000", "113147.093000", "113147.093000", "113147.093000", "113227.062000", "113227.062000", "113227.062000", "113227.062000", "113227.062000", "113227.078000", "113227.078000", "113227.078000", "113227.078000", "113227.078000", "113227.078000", "113227.078000", "113227.078000", "113227.093000", "113227.093000", "113227.093000", "113227.093000", "113227.093000", "113227.093000", "113227.093000", "113307.062000", "113307.062000", "113307.062000", "113307.062000", "113307.062000", "113307.078000", "113307.078000", "113307.078000", "113307.078000", "113307.078000", "113307.078000", "113307.078000", "113307.093000", "113307.093000", "113307.093000", "113307.093000", "113307.093000", "113307.093000", "113307.093000", "113307.093000", "113327.062000", "113327.062000", "113327.062000", "113327.062000", "113327.062000", "113327.078000", "113327.078000", "113327.078000", "113327.078000", "113327.078000", "113407.062000", "113407.062000", "113407.062000", "113407.062000", "113407.062000", "113407.078000", "113407.078000", "113407.078000", "113407.078000", "113407.078000", "113407.078000", "113407.078000", "113407.078000", "113407.093000", "113407.093000", "113407.093000", "113407.093000", "113407.093000", "113407.109000", "113407.109000", "113447.062000", "113447.062000", "113447.062000", "113447.062000", "113447.062000", "113447.078000", "113447.078000", "113447.078000", "113447.078000", "113447.078000", "113447.078000", "113447.078000", "113447.078000", "113447.093000", "113447.093000", "113447.093000", "113447.093000", "113447.093000", "113447.093000", "113447.093000", "113527.062000", "113527.062000", "113527.062000", "113527.062000", "113527.062000", "113527.078000", "113527.078000", "113527.078000", "113527.078000", "113527.078000", "113527.078000", "113527.078000", "113527.078000", "113527.093000", "113527.093000", "113527.093000", "113527.093000", "113527.093000", "113527.093000", "113527.093000", "113607.062000", "113607.062000", "113607.062000", "113607.062000", "113607.062000", "113607.078000", "113607.078000", "113607.078000", "113607.078000", "113607.078000", "113607.078000", "113607.078000", "113607.078000", "113607.093000", "113607.093000", "113607.093000", "113607.093000", "113607.093000", "113607.093000", "113607.093000", "113647.062000", "113647.062000", "113647.062000", "113647.062000", "113647.062000", "113647.078000", "113647.078000", "113647.078000", "113647.078000", "113647.078000", "113647.078000", "113647.078000", "113647.078000", "113647.093000", "113647.093000", "113647.093000", "113647.093000", "113647.093000", "113647.093000", "113647.093000", "113657.187000", "113657.187000", "113657.187000", "113657.187000", "113657.187000", "113657.187000"],
      "InstanceCreationTime": ["112907.062000", "112907.062000", "112907.062000", "112907.078000", "112907.078000", "112907.078000", "112907.078000", "112907.078000", "112907.093000", "112907.093000", "112907.093000", "112907.093000", "112907.093000", "112907.093000", "112907.093000", "112907.093000", "112907.109000", "112907.109000", "112907.109000", "112907.109000", "112907.109000", "112907.109000", "112947.062000", "112947.062000", "112947.062000", "112947.062000", "112947.062000", "112947.078000", "112947.078000", "112947.078000", "112947.078000", "112947.078000", "112947.078000", "112947.078000", "112947.078000", "112947.093000", "112947.093000", "112947.093000", "112947.093000", "112947.093000", "112947.093000", "112947.093000", "113027.062000", "113027.062000", "113027.062000", "113027.062000", "113027.062000", "113027.078000", "113027.078000", "113027.078000", "113027.078000", "113027.078000", "113027.078000", "113027.093000", "113027.093000", "113027.093000", "113027.093000", "113027.093000", "113027.093000", "113027.093000", "113027.109000", "113027.109000", "113107.062000", "113107.062000", "113107.062000", "113107.062000", "113107.062000", "113107.078000", "113107.078000", "113107.078000", "113107.078000", "113107.078000", "113107.078000", "113107.078000", "113107.078000", "113107.093000", "113107.093000", "113107.093000", "113107.093000", "113107.093000", "113107.093000", "113107.093000", "113147.062000", "113147.062000", "113147.062000", "113147.062000", "113147.062000", "113147.078000", "113147.078000", "113147.078000", "113147.078000", "113147.078000", "113147.078000", "113147.078000", "113147.078000", "113147.093000", "113147.093000", "113147.093000", "113147.093000", "113147.093000", "113147.093000", "113147.093000", "113227.062000", "113227.062000", "113227.062000", "113227.062000", "113227.062000", "113227.078000", "113227.078000", "113227.078000", "113227.078000", "113227.078000", "113227.078000", "113227.078000", "113227.078000", "113227.093000", "113227.093000", "113227.093000", "113227.093000", "113227.093000", "113227.093000", "113227.093000", "113307.062000", "113307.062000", "113307.062000", "113307.062000", "113307.062000", "113307.078000", "113307.078000", "113307.078000", "113307.078000", "113307.078000", "113307.078000", "113307.078000", "113307.093000", "113307.093000", "113307.093000", "113307.093000", "113307.093000", "113307.093000", "113307.093000", "113307.093000", "113327.062000", "113327.062000", "113327.062000", "113327.062000", "113327.062000", "113327.078000", "113327.078000", "113327.078000", "113327.078000", "113327.078000", "113407.062000", "113407.062000", "113407.062000", "113407.062000", "113407.062000", "113407.078000", "113407.078000", "113407.078000", "113407.078000", "113407.078000", "113407.078000", "113407.078000", "113407.078000", "113407.093000", "113407.093000", "113407.093000", "113407.093000", "113407.093000", "113407.109000", "113407.109000", "113447.062000", "113447.062000", "113447.062000", "113447.062000", "113447.062000", "113447.078000", "113447.078000", "113447.078000", "113447.078000", "113447.078000", "113447.078000", "113447.078000", "113447.078000", "113447.093000", "113447.093000", "113447.093000", "113447.093000", "113447.093000", "113447.093000", "113447.093000", "113527.062000", "113527.062000", "113527.062000", "113527.062000", "113527.062000", "113527.078000", "113527.078000", "113527.078000", "113527.078000", "113527.078000", "113527.078000", "113527.078000", "113527.078000", "113527.093000", "113527.093000", "113527.093000", "113527.093000", "113527.093000", "113527.093000", "113527.093000", "113607.062000", "113607.062000", "113607.062000", "113607.062000", "113607.062000", "113607.078000", "113607.078000", "113607.078000", "113607.078000", "113607.078000", "113607.078000", "113607.078000", "113607.078000", "113607.093000", "113607.093000", "113607.093000", "113607.093000", "113607.093000", "113607.093000", "113607.093000", "113647.062000", "113647.062000", "113647.062000", "113647.062000", "113647.062000", "113647.078000", "113647.078000", "113647.078000", "113647.078000", "113647.078000", "113647.078000", "113647.078000", "113647.078000", "113647.093000", "113647.093000", "113647.093000", "113647.093000", "113647.093000", "113647.093000", "113647.093000", "113657.187000", "113657.187000", "113657.187000", "113657.187000", "113657.187000", "113657.187000"],
      "InstanceNumber": [1, 2, 3, 4, 5, 6, 7, 8, 9, 10, 11, 12, 13, 14, 15, 16, 17, 18, 19, 20, 21, 22, 23, 24, 25, 26, 27, 28, 29, 30, 31, 32, 33, 34, 35, 36, 37, 38, 39, 40, 41, 42, 43, 44, 45, 46, 47, 48, 49, 50, 51, 52, 53, 54, 55, 56, 57, 58, 59, 60, 61, 62, 63, 64, 65, 66, 67, 68, 69, 70, 71, 72, 73, 74, 75, 76, 77, 78, 79, 80, 81, 82, 83, 84, 85, 86, 87, 88, 89, 90, 91, 92, 93, 94, 95, 96, 97, 98, 99, 100, 101, 102, 103, 104, 105, 106, 107, 108, 109, 110, 111, 112, 113, 114, 115, 116, 117, 118, 119, 120, 121, 122, 123, 124, 125, 126, 127, 128, 129, 130, 131, 132, 133, 134, 135, 136, 137, 138, 139, 140, 141, 142, 143, 144, 145, 146, 147, 148, 149, 150, 151, 152, 153, 154, 155, 156, 157, 158, 159, 160, 161, 162, 163, 164, 165, 166, 167, 168, 169, 170, 171, 172, 173, 174, 175, 176, 177, 178, 179, 180, 181, 182, 183, 184, 185, 186, 187, 188, 189, 190, 191, 192, 193, 194, 195, 196, 197, 198, 199, 200, 201, 202, 203, 204, 205, 206, 207, 208, 209, 210, 211, 212, 213, 214, 215, 216, 217, 218, 219, 220, 221, 222, 223, 224, 225, 226, 227, 228, 229, 230, 231, 232, 233, 234, 235, 236, 237, 238, 239, 240, 241, 242, 243, 244, 245, 246, 247, 248, 249, 250, 251, 252, 253, 254, 255, 256, 257, 258],
      "LargestImagePixelValue": [1643, 1588, 1561, 1541, 1535, 1536, 1548, 1559, 1542, 1560, 1545, 1552, 1582, 1545, 1556, 1541, 1539, 1553, 1552, 1559, 1547, 1538, 1545, 1559, 1554, 1549, 1626, 1571, 1585, 1581, 1567, 1573, 1561, 1553, 1546, 1574, 1553, 1579, 1553, 1555, 1562, 1571, 1564, 1551, 1571, 1577, 1582, 1557, 1564, 1570, 1544, 1564, 1542, 1572, 1562, 1587, 1556, 1546, 1565, 1576, 1556, 1555, 1553, 1569, 1602, 1580, 1577, 1587, 1606, 1553, 1605, 1591, 1604, 1570, 1596, 1615, 1592, 1561, 1571, 1586, 1592, 1559, 1585, 1551, 1589, 1570, 1593, 1569, 1569, 1605, 1560, 1600, 1589, 1610, 1584, 1580, 1635, 1608, 1667, 1594, 1622, 1600, 1641, 1605, 1655, 1645, 1657, 1648, 1628, 1621, 1641, 1627, 1663, 1613, 1612, 1599, 1594, 1613, 1637, 1672, 1644, 1657, 1629, 1657, 1641, 1655, 1617, 1653, 1648, 1622, 1618, 1649, 1640, 1652, 1679, 1677, 1659, 1684, 1689, 1667, 1660, 1683, 1648, 1673, 1670, 1701, 1651, 1683, 1686, 1656, 1704, 1703, 1685, 1637, 1663, 1662, 1672, 1702, 1664, 1655, 1650, 1700, 1689, 1716, 1660, 1652, 1664, 1658, 1719, 1678, 1680, 1669, 1682, 1693, 1688, 1672, 1655, 1657, 1704, 1679, 1677, 1680, 1671, 1728, 1665, 1680, 1672, 1668, 1637, 1662, 1644, 1651, 1671, 1682, 1728, 1703, 1697, 1782, 1688, 1677, 1683, 1657, 1690, 1661, 1676, 1680, 1648, 1698, 1665, 1677, 1668, 1699, 1680, 1709, 1691, 1667, 1689, 1691, 1687, 1682, 1710, 1677, 1694, 1708, 1757, 1679, 1754, 1784, 1736, 1721, 1721, 1699, 1725, 1744, 1758, 1669, 1740, 1695, 1706, 1706, 1701, 1703, 1704, 1728, 1705, 1732, 1691, 1745, 1704, 1735, 1691, 1737, 1723, 1717, 1712, 1697, 1679, 1696],
      "WindowCenter": [775.0, 772.0, 770.0, 769.0, 769.0, 769.0, 769.0, 769.0, 769.0, 769.0, 768.0, 768.0, 769.0, 768.0, 769.0, 769.0, 769.0, 769.0, 769.0, 769.0, 768.0, 768.0, 768.0, 769.0, 769.0, 769.0, 770.0, 770.0, 770.0, 770.0, 771.0, 772.0, 771.0, 771.0, 770.0, 771.0, 770.0, 771.0, 771.0, 770.0, 769.0, 769.0, 769.0, 770.0, 770.0, 770.0, 770.0, 770.0, 770.0, 771.0, 771.0, 771.0, 770.0, 770.0, 771.0, 771.0, 771.0, 770.0, 770.0, 770.0, 771.0, 771.0, 771.0, 772.0, 771.0, 771.0, 771.0, 771.0, 772.0, 771.0, 772.0, 773.0, 773.0, 774.0, 772.0, 772.0, 772.0, 772.0, 771.0, 772.0, 771.0, 770.0, 770.0, 770.0, 770.0, 771.0, 772.0, 772.0, 772.0, 772.0, 772.0, 772.0, 772.0, 773.0, 773.0, 772.0, 772.0, 772.0, 773.0, 772.0, 773.0, 773.0, 774.0, 774.0, 775.0, 774.0, 774.0, 775.0, 775.0, 775.0, 774.0, 773.0, 773.0, 772.0, 772.0, 772.0, 771.0, 771.0, 771.0, 772.0, 771.0, 772.0, 772.0, 773.0, 773.0, 773.0, 774.0, 774.0, 774.0, 773.0, 774.0, 773.0, 773.0, 773.0, 774.0, 774.0, 775.0, 775.0, 775.0, 774.0, 774.0, 774.0, 774.0, 774.0, 774.0, 774.0, 773.0, 773.0, 774.0, 774.0, 775.0, 775.0, 775.0, 775.0, 775.0, 776.0, 776.0, 776.0, 775.0, 775.0, 774.0, 775.0, 775.0, 776.0, 776.0, 776.0, 776.0, 776.0, 776.0, 775.0, 775.0, 773.0, 773.0, 774.0, 774.0, 774.0, 774.0, 774.0, 776.0, 776.0, 775.0, 775.0, 774.0, 775.0, 775.0, 776.0, 776.0, 778.0, 777.0, 777.0, 777.0, 777.0, 777.0, 776.0, 777.0, 776.0, 777.0, 778.0, 778.0, 778.0, 778.0, 776.0, 776.0, 775.0, 774.0, 774.0, 773.0, 774.0, 774.0, 774.0, 773.0, 775.0, 776.0, 776.0, 776.0, 775.0, 776.0, 776.0, 776.0, 775.0, 776.0, 776.0, 776.0, 776.0, 777.0, 777.0, 778.0, 777.0, 778.0, 779.0, 779.0, 779.0, 778.0, 778.0, 777.0, 777.0, 776.0, 776.0, 775.0, 775.0, 775.0, 775.0, 775.0, 775.0, 776.0, 776.0, 776.0, 776.0, 776.0, 777.0, 776.0, 776.0, 777.0, 777.0, 778.0, 778.0, 778.0, 777.0],
      "WindowWidth": [1632.0, 1621.0, 1616.0, 1615.0, 1613.0, 1613.0, 1614.0, 1616.0, 1615.0, 1615.0, 1613.0, 1612.0, 1614.0, 1613.0, 1614.0, 1615.0, 1614.0, 1615.0, 1615.0, 1616.0, 1613.0, 1613.0, 1613.0, 1614.0, 1615.0, 1616.0, 1618.0, 1617.0, 1617.0, 1618.0, 1619.0, 1621.0, 1620.0, 1619.0, 1618.0, 1619.0, 1618.0, 1619.0, 1619.0, 1616.0, 1614.0, 1614.0, 1616.0, 1616.0, 1616.0, 1617.0, 1618.0, 1617.0, 1616.0, 1619.0, 1619.0, 1618.0, 1616.0, 1618.0, 1619.0, 1619.0, 1618.0, 1617.0, 1617.0, 1617.0, 1619.0, 1620.0, 1620.0, 1621.0, 1621.0, 1618.0, 1619.0, 1620.0, 1623.0, 1620.0, 1622.0, 1625.0, 1625.0, 1626.0, 1623.0, 1621.0, 1621.0, 1621.0, 1621.0, 1621.0, 1620.0, 1617.0, 1618.0, 1618.0, 1618.0, 1619.0, 1621.0, 1621.0, 1622.0, 1622.0, 1621.0, 1622.0, 1622.0, 1625.0, 1623.0, 1622.0, 1623.0, 1623.0, 1624.0, 1622.0, 1624.0, 1624.0, 1626.0, 1627.0, 1629.0, 1626.0, 1628.0, 1629.0, 1631.0, 1629.0, 1627.0, 1625.0, 1625.0, 1622.0, 1622.0, 1621.0, 1620.0, 1621.0, 1621.0, 1621.0, 1620.0, 1622.0, 1623.0, 1626.0, 1625.0, 1626.0, 1626.0, 1627.0, 1626.0, 1626.0, 1626.0, 1626.0, 1625.0, 1625.0, 1628.0, 1628.0, 1630.0, 1631.0, 1629.0, 1627.0, 1626.0, 1627.0, 1628.0, 1628.0, 1628.0, 1628.0, 1626.0, 1626.0, 1627.0, 1627.0, 1630.0, 1629.0, 1629.0, 1629.0, 1631.0, 1632.0, 1632.0, 1633.0, 1631.0, 1629.0, 1628.0, 1631.0, 1630.0, 1633.0, 1633.0, 1632.0, 1632.0, 1632.0, 1633.0, 1631.0, 1629.0, 1625.0, 1626.0, 1627.0, 1627.0, 1629.0, 1628.0, 1628.0, 1632.0, 1632.0, 1631.0, 1629.0, 1628.0, 1631.0, 1631.0, 1632.0, 1632.0, 1637.0, 1635.0, 1635.0, 1635.0, 1634.0, 1634.0, 1633.0, 1635.0, 1633.0, 1635.0, 1639.0, 1638.0, 1638.0, 1636.0, 1633.0, 1632.0, 1629.0, 1628.0, 1627.0, 1626.0, 1627.0, 1628.0, 1628.0, 1626.0, 1629.0, 1632.0, 1633.0, 1632.0, 1631.0, 1633.0, 1634.0, 1631.0, 1631.0, 1634.0, 1632.0, 1632.0, 1632.0, 1636.0, 1635.0, 1638.0, 1636.0, 1639.0, 1641.0, 1641.0, 1639.0, 1638.0, 1638.0, 1636.0, 1634.0, 1634.0, 1632.0, 1630.0, 1631.0, 1631.0, 1631.0, 1631.0, 1631.0, 1631.0, 1633.0, 1632.0, 1633.0, 1632.0, 1634.0, 1633.0, 1634.0, 1634.0, 1635.0, 1637.0, 1636.0, 1637.0, 1636.0]
    },
    "slices": {}
  }
}