{
  "AcquisitionMatrixPE": 68,
  "AcquisitionNumber": 1,
  "AcquisitionTime": "09:41:13.535000",
  "BandwidthPerPixelPhaseEncode": 31.289,
  "BaseResolution": 68,
  "CoilString": "C:HEA;HEP",
  "ConversionSoftware": "dcm2niix",
  "ConversionSoftwareVersion": "v1.0.20190902",
  "DerivedVendorReportedEchoSpacing": 0.000470002,
  "DeviceSerialNumber": "35450",
  "DwellTime": 3e-06,
  "EchoTime": 0.023,
  "EffectiveEchoSpacing": 0.000470002,
  "FlipAngle": 76,
  "ImageOrientationPatientDICOM": [1, 0, 0, 0, 0.991894, -0.127065],
  "ImageType": [
    "ORIGINAL",
    "PRIMARY",
    "M",
    "ND",
    "MOSAIC"
],
  "ImagingFrequency": 123.219,
  "InPlanePhaseEncodingDirectionDICOM": "COL",
  "InstitutionAddress": "Univeristy_Ave._197_Newark_North_East_US_07102-1814",
  "InstitutionName": "RUBIC",
  "InstitutionalDepartmentName": "Department",
  "MRAcquisitionType": "2D",
  "MagneticFieldStrength": 3,
  "Manufacturer": "Siemens",
  "ManufacturersModelName": "TrioTim",
  "Modality": "MR",
  "PartialFourier": 1,
  "PatientPosition": "HFS",
  "PercentPhaseFOV": 100,
  "PhaseEncodingDirection": "j-",
  "PhaseEncodingSteps": 68,
  "PhaseResolution": 1,
  "PixelBandwidth": 2451,
  "ProcedureStepDescription": "Krekelberg_David",
  "ProtocolName": "ep2d_bold_CardGameEPI",
  "PulseSequenceDetails": "%SiemensSeq%_ep2d_bold",
  "ReceiveCoilName": "HeadMatrix",
  "ReconMatrixPE": 68,
  "RepetitionTime": 2,
  "SAR": 0.157506,
  "ScanOptions": "FS",
  "ScanningSequence": "EP",
  "SequenceName": "_epfid2d1_68",
  "SequenceVariant": "SK",
  "SeriesDescription": "ep2d_bold_CardGameEPI",
  "SeriesNumber": 8,
  "ShimSetting": [1969, -704, -7668, 586, 177, -87, -24, 52],
  "SliceThickness": 2.5,
  "SliceTiming": [1.9525, 1.895, 1.84, 1.785, 1.7275, 1.6725, 1.6175, 1.56, 1.505, 1.45, 1.3925, 1.3375, 1.2825, 1.2275, 1.17, 1.115, 1.06, 1.0025, 0.9475, 0.8925, 0.835, 0.78, 0.725, 0.67, 0.6125, 0.5575, 0.5025, 0.445, 0.39, 0.335, 0.2775, 0.2225, 0.1675, 0.11, 0.055, 0],
  "SoftwareVersions": "syngo_MR_B19",
  "SpacingBetweenSlices": 3,
  "StationName": "MRC35450",
  "TaskName": "cardgame",
  "TotalReadoutTime": 0.0314901,
  "TxRefAmp": 306.343,
  "dcmmeta_affine": [
    [-3.0, 0.0, 0.0, 97.93220520019531],
    [0.0, 2.9756832122802734, -0.3811938464641571, -86.1029281616211],
    [0.0, 0.3811938464641571, 2.9756834506988525, -40.92504119873047],
    [0.0, 0.0, 0.0, 1.0]
],
  "dcmmeta_reorient_transform": [
    [0.0, -1.0, 0.0, 67.0],
    [1.0, 0.0, 0.0, 0.0],
    [0.0, 0.0, 1.0, 0.0],
    [0.0, 0.0, 0.0, 1.0]
],
  "dcmmeta_shape": [68, 68, 36, 248],
  "dcmmeta_slice_dim": 2,
  "dcmmeta_version": 0.6,
  "global": {
    "const": {
      "AcquisitionMatrix": [68, 0, 0, 68],
      "AngioFlag": "N",
      "BitsAllocated": 16,
      "BitsStored": 12,
      "Columns": 408,
      "EchoNumbers": 1,
      "EchoTime": 23.0,
      "EchoTrainLength": 1,
      "FlipAngle": 76.0,
      "HighBit": 11,
      "ImageOrientationPatient": [1.0, 0.0, 0.0, 0.0, 0.99189444198249, -0.1270646133439],
      "ImagePositionPatient": [-607.93220329285, -619.13401919793, 49.417899369299],
      "ImageType": [
        "ORIGINAL",
        "PRIMARY",
        "M",
        "ND",
        "MOSAIC"
],
      "ImagedNucleus": "1H",
      "ImagingFrequency": 123.218657,
      "InPlanePhaseEncodingDirection": "COL",
      "MRAcquisitionType": "2D",
      "MagneticFieldStrength": 3.0,
      "Manufacturer": "SIEMENS",
      "ManufacturerModelName": "TrioTim",
      "Modality": "MR",
      "NumberOfAverages": 1.0,
      "NumberOfPhaseEncodingSteps": 68,
      "PercentPhaseFieldOfView": 100.0,
      "PercentSampling": 100.0,
      "PerformedProcedureStepStartTime": "085940.593000",
      "PhotometricInterpretation": "MONOCHROME2",
      "PixelBandwidth": 2451.0,
      "PixelRepresentation": 0,
      "PixelSpacing": [3.0, 3.0],
      "ProtocolName": "ep2d_bold_CardGameEPI",
      "RepetitionTime": 2000.0,
      "Rows": 408,
      "SAR": 0.1575058350199,
      "SamplesPerPixel": 1,
      "ScanOptions": "FS",
      "ScanningSequence": "EP",
      "SequenceName": "*epfid2d1_68",
      "SequenceVariant": "SK",
      "SeriesDescription": "ep2d_bold_CardGameEPI",
      "SeriesNumber": 8,
      "SeriesTime": "094126.203000",
      "SliceLocation": -29.652685038608,
      "SliceThickness": 2.5,
      "SmallestImagePixelValue": 0,
      "SoftwareVersions": "syngo MR B19",
      "SpacingBetweenSlices": 3.0000001007169,
      "SpecificCharacterSet": "ISO_IR 100",
      "StudyID": "1",
      "StudyTime": "085940.562000",
      "TransmitCoilName": "Body",
      "VariableFlipAngleFlag": "N",
      "WindowCenterWidthExplanation": "Algo1",
      "dBdt": 0.0},
    "slices": {}
  },
  "time": {
    "samples": {
      "AcquisitionNumber": [1, 2, 3, 4, 5, 6, 7, 8, 9, 10, 11, 12, 13, 14, 15, 16, 17, 18, 19, 20, 21, 22, 23, 24, 25, 26, 27, 28, 29, 30, 31, 32, 33, 34, 35, 36, 37, 38, 39, 40, 41, 42, 43, 44, 45, 46, 47, 48, 49, 50, 51, 52, 53, 54, 55, 56, 57, 58, 59, 60, 61, 62, 63, 64, 65, 66, 67, 68, 69, 70, 71, 72, 73, 74, 75, 76, 77, 78, 79, 80, 81, 82, 83, 84, 85, 86, 87, 88, 89, 90, 91, 92, 93, 94, 95, 96, 97, 98, 99, 100, 101, 102, 103, 104, 105, 106, 107, 108, 109, 110, 111, 112, 113, 114, 115, 116, 117, 118, 119, 120, 121, 122, 123, 124, 125, 126, 127, 128, 129, 130, 131, 132, 133, 134, 135, 136, 137, 138, 139, 140, 141, 142, 143, 144, 145, 146, 147, 148, 149, 150, 151, 152, 153, 154, 155, 156, 157, 158, 159, 160, 161, 162, 163, 164, 165, 166, 167, 168, 169, 170, 171, 172, 173, 174, 175, 176, 177, 178, 179, 180, 181, 182, 183, 184, 185, 186, 187, 188, 189, 190, 191, 192, 193, 194, 195, 196, 197, 198, 199, 200, 201, 202, 203, 204, 205, 206, 207, 208, 209, 210, 211, 212, 213, 214, 215, 216, 217, 218, 219, 220, 221, 222, 223, 224, 225, 226, 227, 228, 229, 230, 231, 232, 233, 234, 235, 236, 237, 238, 239, 240, 241, 242, 243, 244, 245, 246, 247, 248],
      "AcquisitionTime": ["094113.535000", "094115.542500", "094117.550000", "094119.557500", "094121.565000", "094123.575000", "094125.582500", "094127.590000", "094129.597500", "094131.605000", "094133.615000", "094135.622500", "094137.630000", "094139.637500", "094141.647500", "094143.655000", "094145.662500", "094147.670000", "094149.677500", "094151.687500", "094153.695000", "094155.702500", "094157.710000", "094159.717500", "094201.727500", "094203.735000", "094205.742500", "094207.750000", "094209.757500", "094211.767500", "094213.775000", "094215.782500", "094217.790000", "094219.800000", "094221.807500", "094223.815000", "094225.822500", "094227.830000", "094229.840000", "094231.847500", "094233.855000", "094235.862500", "094237.870000", "094239.880000", "094241.887500", "094243.895000", "094245.902500", "094247.912500", "094249.920000", "094251.927500", "094253.935000", "094255.942500", "094257.952500", "094259.960000", "094301.967500", "094303.975000", "094305.982500", "094307.992500", "094310.000000", "094312.007500", "094314.015000", "094316.025000", "094318.032500", "094320.040000", "094322.047500", "094324.055000", "094326.065000", "094328.072500", "094330.080000", "094332.087500", "094334.095000", "094336.105000", "094338.112500", "094340.120000", "094342.127500", "094344.135000", "094346.145000", "094348.152500", "094350.160000", "094352.167500", "094354.177500", "094356.185000", "094358.192500", "094400.200000", "094402.207500", "094404.217500", "094406.225000", "094408.232500", "094410.240000", "094412.247500", "094414.257500", "094416.265000", "094418.272500", "094420.280000", "094422.290000", "094424.297500", "094426.305000", "094428.312500", "094430.320000", "094432.330000", "094434.337500", "094436.345000", "094438.352500", "094440.360000", "094442.370000", "094444.377500", "094446.385000", "094448.392500", "094450.402500", "094452.410000", "094454.417500", "094456.425000", "094458.432500", "094500.442500", "094502.450000", "094504.457500", "094506.465000", "094508.472500", "094510.482500", "094512.490000", "094514.497500", "094516.505000", "094518.512500", "094520.522500", "094522.530000", "094524.537500", "094526.545000", "094528.555000", "094530.562500", "094532.570000", "094534.577500", "094536.585000", "094538.595000", "094540.602500", "094542.610000", "094544.617500", "094546.625000", "094548.635000", "094550.642500", "094552.650000", "094554.657500", "094556.667500", "094558.675000", "094600.682500", "094602.690000", "094604.697500", "094606.707500", "094608.715000", "094610.722500", "094612.730000", "094614.737500", "094616.747500", "094618.755000", "094620.762500", "094622.770000", "094624.780000", "094626.787500", "094628.795000", "094630.802500", "094632.810000", "094634.820000", "094636.827500", "094638.835000", "094640.842500", "094642.850000", "094644.860000", "094646.867500", "094648.875000", "094650.882500", "094652.890000", "094654.900000", "094656.907500", "094658.915000", "094700.922500", "094702.932500", "094704.940000", "094706.947500", "094708.955000", "094710.962500", "094712.972500", "094714.980000", "094716.987500", "094718.995000", "094721.002500", "094723.012500", "094725.020000", "094727.027500", "094729.035000", "094731.045000", "094733.052500", "094735.060000", "094737.067500", "094739.075000", "094741.085000", "094743.092500", "094745.100000", "094747.107500", "094749.115000", "094751.125000", "094753.132500", "094755.140000", "094757.147500", "094759.157500", "094801.165000", "094803.172500", "094805.180000", "094807.187500", "094809.197500", "094811.205000", "094813.212500", "094815.220000", "094817.227500", "094819.237500", "094821.245000", "094823.252500", "094825.260000", "094827.270000", "094829.277500", "094831.285000", "094833.292500", "094835.300000", "094837.310000", "094839.317500", "094841.325000", "094843.332500", "094845.340000", "094847.350000", "094849.357500", "094851.365000", "094853.372500", "094855.380000", "094857.390000", "094859.397500", "094901.405000", "094903.412500", "094905.422500", "094907.430000", "094909.437500", "094911.445000", "094913.452500", "094915.462500", "094917.470000", "094919.477500", "094921.485000", "094923.492500", "094925.502500", "094927.510000", "094929.517500"],
      "ContentTime": ["094126.203000", "094126.203000", "094126.203000", "094126.218000", "094126.218000", "094126.218000", "094206.203000", "094206.203000", "094206.203000", "094206.203000", "094206.203000", "094206.203000", "094206.218000", "094206.218000", "094206.218000", "094206.218000", "094206.218000", "094206.218000", "094206.218000", "094206.234000", "094206.234000", "094206.234000", "094206.234000", "094206.234000", "094206.234000", "094206.234000", "094246.203000", "094246.203000", "094246.203000", "094246.203000", "094246.203000", "094246.203000", "094246.218000", "094246.218000", "094246.218000", "094246.218000", "094246.218000", "094246.218000", "094246.218000", "094246.234000", "094246.234000", "094246.234000", "094246.234000", "094246.234000", "094246.234000", "094246.234000", "094326.203000", "094326.203000", "094326.203000", "094326.203000", "094326.203000", "094326.203000", "094326.218000", "094326.218000", "094326.218000", "094326.218000", "094326.218000", "094326.218000", "094326.218000", "094326.234000", "094326.234000", "094326.234000", "094326.234000", "094326.234000", "094326.234000", "094326.234000", "094406.203000", "094406.203000", "094406.203000", "094406.203000", "094406.203000", "094406.203000", "094406.218000", "094406.218000", "094406.218000", "094406.218000", "094406.218000", "094406.218000", "094406.218000", "094406.234000", "094406.234000", "094406.234000", "094406.234000", "094406.234000", "094406.234000", "094406.234000", "094446.203000", "094446.203000", "094446.203000", "094446.203000", "094446.203000", "094446.203000", "094446.218000", "094446.218000", "094446.218000", "094446.218000", "094446.218000", "094446.218000", "094446.218000", "094446.234000", "094446.234000", "094446.234000", "094446.234000", "094446.234000", "094446.234000", "094446.234000", "094526.203000", "094526.203000", "094526.203000", "094526.203000", "094526.203000", "094526.203000", "094526.218000", "094526.218000", "094526.218000", "094526.218000", "094526.218000", "094526.218000", "094526.218000", "094526.234000", "094526.234000", "094526.234000", "094526.234000", "094526.234000", "094526.234000", "094526.234000", "094606.203000", "094606.203000", "094606.203000", "094606.203000", "094606.203000", "094606.218000", "094606.218000", "094606.218000", "094606.218000", "094606.218000", "094606.218000", "094606.218000", "094606.218000", "094606.234000", "094606.234000", "094606.234000", "094606.234000", "094606.234000", "094606.234000", "094606.234000", "094646.203000", "094646.203000", "094646.203000", "094646.203000", "094646.203000", "094646.218000", "094646.218000", "094646.218000", "094646.218000", "094646.218000", "094646.218000", "094646.218000", "094646.218000", "094646.234000", "094646.234000", "094646.234000", "094646.234000", "094646.234000", "094646.234000", "094646.234000", "094726.203000", "094726.203000", "094726.203000", "094726.203000", "094726.203000", "094726.218000", "094726.218000", "094726.218000", "094726.218000", "094726.218000", "094726.218000", "094726.218000", "094726.218000", "094726.234000", "094726.234000", "094726.234000", "094726.234000", "094726.234000", "094726.234000", "094726.234000", "094806.203000", "094806.203000", "094806.203000", "094806.203000", "094806.203000", "094806.203000", "094806.218000", "094806.218000", "094806.218000", "094806.218000", "094806.218000", "094806.218000", "094806.218000", "094806.234000", "094806.234000", "094806.234000", "094806.234000", "094806.234000", "094806.234000", "094806.234000", "094846.203000", "094846.203000", "094846.203000", "094846.203000", "094846.203000", "094846.218000", "094846.218000", "094846.218000", "094846.218000", "094846.218000", "094846.218000", "094846.218000", "094846.218000", "094846.234000", "094846.234000", "094846.234000", "094846.234000", "094846.234000", "094846.234000", "094846.234000", "094926.203000", "094926.203000", "094926.203000", "094926.203000", "094926.203000", "094926.218000", "094926.218000", "094926.218000", "094926.218000", "094926.218000", "094926.218000", "094926.218000", "094926.218000", "094926.234000", "094926.234000", "094926.234000", "094926.234000", "094926.234000", "094926.234000", "094926.234000", "094929.203000", "094929.203000"],
      "InstanceCreationTime": ["094126.203000", "094126.203000", "094126.203000", "094126.218000", "094126.218000", "094126.218000", "094206.203000", "094206.203000", "094206.203000", "094206.203000", "094206.203000", "094206.203000", "094206.218000", "094206.218000", "094206.218000", "094206.218000", "094206.218000", "094206.218000", "094206.218000", "094206.234000", "094206.234000", "094206.234000", "094206.234000", "094206.234000", "094206.234000", "094206.234000", "094246.203000", "094246.203000", "094246.203000", "094246.203000", "094246.203000", "094246.203000", "094246.218000", "094246.218000", "094246.218000", "094246.218000", "094246.218000", "094246.218000", "094246.218000", "094246.234000", "094246.234000", "094246.234000", "094246.234000", "094246.234000", "094246.234000", "094246.234000", "094326.203000", "094326.203000", "094326.203000", "094326.203000", "094326.203000", "094326.203000", "094326.218000", "094326.218000", "094326.218000", "094326.218000", "094326.218000", "094326.218000", "094326.218000", "094326.234000", "094326.234000", "094326.234000", "094326.234000", "094326.234000", "094326.234000", "094326.234000", "094406.203000", "094406.203000", "094406.203000", "094406.203000", "094406.203000", "094406.203000", "094406.218000", "094406.218000", "094406.218000", "094406.218000", "094406.218000", "094406.218000", "094406.218000", "094406.234000", "094406.234000", "094406.234000", "094406.234000", "094406.234000", "094406.234000", "094406.234000", "094446.203000", "094446.203000", "094446.203000", "094446.203000", "094446.203000", "094446.203000", "094446.218000", "094446.218000", "094446.218000", "094446.218000", "094446.218000", "094446.218000", "094446.218000", "094446.234000", "094446.234000", "094446.234000", "094446.234000", "094446.234000", "094446.234000", "094446.234000", "094526.203000", "094526.203000", "094526.203000", "094526.203000", "094526.203000", "094526.203000", "094526.218000", "094526.218000", "094526.218000", "094526.218000", "094526.218000", "094526.218000", "094526.218000", "094526.234000", "094526.234000", "094526.234000", "094526.234000", "094526.234000", "094526.234000", "094526.234000", "094606.203000", "094606.203000", "094606.203000", "094606.203000", "094606.203000", "094606.218000", "094606.218000", "094606.218000", "094606.218000", "094606.218000", "094606.218000", "094606.218000", "094606.218000", "094606.234000", "094606.234000", "094606.234000", "094606.234000", "094606.234000", "094606.234000", "094606.234000", "094646.203000", "094646.203000", "094646.203000", "094646.203000", "094646.203000", "094646.218000", "094646.218000", "094646.218000", "094646.218000", "094646.218000", "094646.218000", "094646.218000", "094646.218000", "094646.234000", "094646.234000", "094646.234000", "094646.234000", "094646.234000", "094646.234000", "094646.234000", "094726.203000", "094726.203000", "094726.203000", "094726.203000", "094726.203000", "094726.218000", "094726.218000", "094726.218000", "094726.218000", "094726.218000", "094726.218000", "094726.218000", "094726.218000", "094726.234000", "094726.234000", "094726.234000", "094726.234000", "094726.234000", "094726.234000", "094726.234000", "094806.203000", "094806.203000", "094806.203000", "094806.203000", "094806.203000", "094806.203000", "094806.218000", "094806.218000", "094806.218000", "094806.218000", "094806.218000", "094806.218000", "094806.218000", "094806.234000", "094806.234000", "094806.234000", "094806.234000", "094806.234000", "094806.234000", "094806.234000", "094846.203000", "094846.203000", "094846.203000", "094846.203000", "094846.203000", "094846.218000", "094846.218000", "094846.218000", "094846.218000", "094846.218000", "094846.218000", "094846.218000", "094846.218000", "094846.234000", "094846.234000", "094846.234000", "094846.234000", "094846.234000", "094846.234000", "094846.234000", "094926.203000", "094926.203000", "094926.203000", "094926.203000", "094926.203000", "094926.218000", "094926.218000", "094926.218000", "094926.218000", "094926.218000", "094926.218000", "094926.218000", "094926.218000", "094926.234000", "094926.234000", "094926.234000", "094926.234000", "094926.234000", "094926.234000", "094926.234000", "094929.203000", "094929.203000"],
      "InstanceNumber": [1, 2, 3, 4, 5, 6, 7, 8, 9, 10, 11, 12, 13, 14, 15, 16, 17, 18, 19, 20, 21, 22, 23, 24, 25, 26, 27, 28, 29, 30, 31, 32, 33, 34, 35, 36, 37, 38, 39, 40, 41, 42, 43, 44, 45, 46, 47, 48, 49, 50, 51, 52, 53, 54, 55, 56, 57, 58, 59, 60, 61, 62, 63, 64, 65, 66, 67, 68, 69, 70, 71, 72, 73, 74, 75, 76, 77, 78, 79, 80, 81, 82, 83, 84, 85, 86, 87, 88, 89, 90, 91, 92, 93, 94, 95, 96, 97, 98, 99, 100, 101, 102, 103, 104, 105, 106, 107, 108, 109, 110, 111, 112, 113, 114, 115, 116, 117, 118, 119, 120, 121, 122, 123, 124, 125, 126, 127, 128, 129, 130, 131, 132, 133, 134, 135, 136, 137, 138, 139, 140, 141, 142, 143, 144, 145, 146, 147, 148, 149, 150, 151, 152, 153, 154, 155, 156, 157, 158, 159, 160, 161, 162, 163, 164, 165, 166, 167, 168, 169, 170, 171, 172, 173, 174, 175, 176, 177, 178, 179, 180, 181, 182, 183, 184, 185, 186, 187, 188, 189, 190, 191, 192, 193, 194, 195, 196, 197, 198, 199, 200, 201, 202, 203, 204, 205, 206, 207, 208, 209, 210, 211, 212, 213, 214, 215, 216, 217, 218, 219, 220, 221, 222, 223, 224, 225, 226, 227, 228, 229, 230, 231, 232, 233, 234, 235, 236, 237, 238, 239, 240, 241, 242, 243, 244, 245, 246, 247, 248],
      "LargestImagePixelValue": [1940, 1848, 1795, 1767, 1816, 1887, 1798, 1800, 1844, 1752, 1807, 1773, 1775, 1837, 1804, 1810, 1840, 1773, 1820, 1766, 1787, 1807, 1827, 1801, 1838, 1826, 1827, 1768, 1822, 1796, 1772, 1755, 1812, 1779, 1806, 1834, 1791, 1865, 1812, 1836, 1770, 1834, 1845, 1847, 1828, 1808, 1805, 1796, 1800, 1831, 1830, 1823, 1849, 1815, 1848, 1781, 1816, 1809, 1850, 1836, 1842, 1759, 1874, 1818, 1841, 1811, 1879, 1769, 1761, 1793, 1822, 1810, 1757, 1812, 1776, 1798, 1871, 1821, 1788, 1804, 1852, 1799, 1778, 1834, 1868, 1826, 1782, 1852, 1807, 1767, 1795, 1881, 1831, 1855, 1838, 1815, 1859, 1919, 1831, 1803, 1779, 1845, 1829, 1800, 1833, 1792, 1813, 1800, 1728, 1778, 1782, 1783, 1809, 1805, 1844, 1806, 1841, 1826, 1815, 1821, 1857, 1793, 1782, 1783, 1796, 1795, 1793, 1815, 1772, 1767, 1816, 1844, 1823, 1771, 1810, 1785, 1822, 1770, 1839, 1806, 1828, 1759, 1788, 1812, 1808, 1769, 1833, 1752, 1792, 1806, 1759, 1886, 1885, 1826, 1837, 1839, 1911, 1825, 1803, 1796, 1771, 1825, 1856, 1846, 1818, 1834, 1844, 1852, 1877, 1841, 1880, 1786, 1783, 1771, 1862, 1837, 1839, 1796, 1840, 1835, 1781, 1788, 1848, 1814, 1830, 1793, 1850, 1813, 1796, 1866, 1882, 1898, 1878, 1886, 1892, 1889, 1834, 1877, 1908, 1899, 1846, 1856, 1910, 1879, 1857, 1921, 1950, 1822, 1864, 1832, 1881, 1847, 1884, 1821, 1782, 1772, 1811, 1787, 1864, 1811, 1814, 1823, 1911, 1866, 1945, 1885, 1903, 1874, 1932, 1936, 1831, 1903, 1866, 1843, 1909, 1846, 1860, 1901, 1867, 1847, 1912, 1881, 1839, 1903, 1903, 1851, 1917, 1831],
      "WindowCenter": [797.0, 791.0, 791.0, 791.0, 792.0, 792.0, 790.0, 787.0, 785.0, 784.0, 785.0, 788.0, 790.0, 791.0, 790.0, 789.0, 790.0, 790.0, 790.0, 790.0, 790.0, 792.0, 792.0, 791.0, 792.0, 792.0, 792.0, 791.0, 791.0, 791.0, 791.0, 791.0, 792.0, 793.0, 793.0, 793.0, 793.0, 793.0, 792.0, 791.0, 791.0, 793.0, 793.0, 793.0, 792.0, 792.0, 792.0, 793.0, 794.0, 795.0, 794.0, 793.0, 793.0, 793.0, 793.0, 792.0, 793.0, 798.0, 794.0, 792.0, 793.0, 791.0, 792.0, 791.0, 792.0, 792.0, 794.0, 794.0, 792.0, 793.0, 793.0, 793.0, 792.0, 794.0, 793.0, 793.0, 794.0, 793.0, 792.0, 793.0, 794.0, 793.0, 792.0, 794.0, 795.0, 795.0, 794.0, 797.0, 794.0, 793.0, 794.0, 795.0, 794.0, 795.0, 794.0, 794.0, 794.0, 797.0, 797.0, 797.0, 796.0, 796.0, 795.0, 795.0, 797.0, 797.0, 798.0, 796.0, 791.0, 791.0, 790.0, 791.0, 792.0, 793.0, 794.0, 795.0, 795.0, 794.0, 793.0, 793.0, 794.0, 793.0, 794.0, 794.0, 795.0, 795.0, 795.0, 795.0, 796.0, 796.0, 797.0, 797.0, 796.0, 793.0, 794.0, 794.0, 795.0, 795.0, 795.0, 794.0, 795.0, 794.0, 794.0, 796.0, 795.0, 794.0, 796.0, 795.0, 797.0, 795.0, 796.0, 796.0, 796.0, 795.0, 796.0, 797.0, 799.0, 799.0, 798.0, 798.0, 797.0, 797.0, 798.0, 798.0, 798.0, 799.0, 799.0, 799.0, 798.0, 797.0, 797.0, 796.0, 797.0, 797.0, 799.0, 799.0, 799.0, 798.0, 798.0, 798.0, 797.0, 796.0, 797.0, 797.0, 798.0, 798.0, 799.0, 799.0, 798.0, 803.0, 802.0, 803.0, 801.0, 800.0, 799.0, 799.0, 798.0, 799.0, 799.0, 799.0, 797.0, 798.0, 800.0, 800.0, 799.0, 799.0, 799.0, 796.0, 796.0, 796.0, 798.0, 799.0, 798.0, 797.0, 795.0, 795.0, 797.0, 796.0, 798.0, 798.0, 799.0, 800.0, 804.0, 801.0, 802.0, 800.0, 803.0, 801.0, 800.0, 799.0, 796.0, 797.0, 797.0, 796.0, 798.0, 798.0, 798.0, 799.0, 798.0, 797.0, 799.0, 798.0, 798.0, 800.0, 799.0, 797.0, 803.0, 798.0],
      "WindowWidth": [1671.0, 1657.0, 1656.0, 1657.0, 1658.0, 1658.0, 1654.0, 1645.0, 1641.0, 1640.0, 1642.0, 1647.0, 1652.0, 1656.0, 1652.0, 1651.0, 1652.0, 1653.0, 1653.0, 1652.0, 1653.0, 1656.0, 1656.0, 1655.0, 1657.0, 1657.0, 1657.0, 1654.0, 1656.0, 1654.0, 1654.0, 1654.0, 1657.0, 1659.0, 1658.0, 1660.0, 1659.0, 1661.0, 1658.0, 1656.0, 1655.0, 1660.0, 1661.0, 1660.0, 1659.0, 1658.0, 1657.0, 1658.0, 1660.0, 1663.0, 1662.0, 1660.0, 1660.0, 1659.0, 1660.0, 1657.0, 1658.0, 1672.0, 1662.0, 1658.0, 1660.0, 1655.0, 1659.0, 1655.0, 1658.0, 1658.0, 1662.0, 1661.0, 1658.0, 1659.0, 1660.0, 1658.0, 1657.0, 1662.0, 1660.0, 1660.0, 1663.0, 1660.0, 1658.0, 1659.0, 1662.0, 1658.0, 1657.0, 1661.0, 1665.0, 1663.0, 1662.0, 1668.0, 1663.0, 1659.0, 1662.0, 1664.0, 1663.0, 1663.0, 1662.0, 1663.0, 1663.0, 1669.0, 1669.0, 1668.0, 1667.0, 1666.0, 1663.0, 1665.0, 1670.0, 1669.0, 1671.0, 1666.0, 1655.0, 1654.0, 1652.0, 1656.0, 1658.0, 1659.0, 1662.0, 1664.0, 1665.0, 1662.0, 1661.0, 1659.0, 1663.0, 1660.0, 1661.0, 1661.0, 1663.0, 1664.0, 1665.0, 1666.0, 1667.0, 1667.0, 1669.0, 1669.0, 1666.0, 1661.0, 1662.0, 1662.0, 1665.0, 1664.0, 1665.0, 1662.0, 1663.0, 1661.0, 1663.0, 1666.0, 1664.0, 1662.0, 1667.0, 1665.0, 1668.0, 1664.0, 1668.0, 1668.0, 1667.0, 1665.0, 1667.0, 1669.0, 1676.0, 1674.0, 1671.0, 1672.0, 1668.0, 1670.0, 1672.0, 1671.0, 1670.0, 1674.0, 1674.0, 1673.0, 1672.0, 1668.0, 1670.0, 1667.0, 1668.0, 1669.0, 1674.0, 1673.0, 1673.0, 1672.0, 1671.0, 1672.0, 1668.0, 1666.0, 1669.0, 1670.0, 1672.0, 1670.0, 1673.0, 1673.0, 1671.0, 1683.0, 1683.0, 1682.0, 1679.0, 1675.0, 1673.0, 1673.0, 1671.0, 1674.0, 1675.0, 1675.0, 1670.0, 1672.0, 1677.0, 1675.0, 1672.0, 1672.0, 1673.0, 1666.0, 1666.0, 1667.0, 1670.0, 1674.0, 1672.0, 1668.0, 1664.0, 1665.0, 1668.0, 1666.0, 1671.0, 1671.0, 1674.0, 1676.0, 1684.0, 1678.0, 1680.0, 1676.0, 1683.0, 1677.0, 1678.0, 1675.0, 1667.0, 1670.0, 1668.0, 1668.0, 1673.0, 1671.0, 1671.0, 1674.0, 1671.0, 1670.0, 1674.0, 1672.0, 1672.0, 1676.0, 1673.0, 1670.0, 1684.0, 1673.0]
    },
    "slices": {}
  }
}