{
  "AcquisitionMatrixPE": 68,
  "AcquisitionNumber": 1,
  "AcquisitionTime": "10:11:54.710000",
  "BandwidthPerPixelPhaseEncode": 31.289,
  "BaseResolution": 68,
  "CoilString": "C:HEA;HEP",
  "ConversionSoftware": "dcm2niix",
  "ConversionSoftwareVersion": "v1.0.20190902",
  "DerivedVendorReportedEchoSpacing": 0.000470002,
  "DeviceSerialNumber": "35450",
  "DwellTime": 3e-06,
  "EchoTime": 0.023,
  "EffectiveEchoSpacing": 0.000470002,
  "FlipAngle": 76,
  "ImageOrientationPatientDICOM": [1, 0, 0, 0, 0.991894, -0.127065],
  "ImageType": [
    "ORIGINAL",
    "PRIMARY",
    "M",
    "ND",
    "MOSAIC"
],
  "ImagingFrequency": 123.219,
  "InPlanePhaseEncodingDirectionDICOM": "COL",
  "InstitutionAddress": "Univeristy_Ave._197_Newark_North_East_US_07102-1814",
  "InstitutionName": "RUBIC",
  "InstitutionalDepartmentName": "Department",
  "MRAcquisitionType": "2D",
  "MagneticFieldStrength": 3,
  "Manufacturer": "Siemens",
  "ManufacturersModelName": "TrioTim",
  "Modality": "MR",
  "PartialFourier": 1,
  "PatientPosition": "HFS",
  "PercentPhaseFOV": 100,
  "PhaseEncodingDirection": "j-",
  "PhaseEncodingSteps": 68,
  "PhaseResolution": 1,
  "PixelBandwidth": 2451,
  "ProcedureStepDescription": "Krekelberg_David",
  "ProtocolName": "ep2d_bold_RestEPI",
  "PulseSequenceDetails": "%SiemensSeq%_ep2d_bold",
  "ReceiveCoilName": "HeadMatrix",
  "ReconMatrixPE": 68,
  "RepetitionTime": 2,
  "SAR": 0.15749,
  "ScanOptions": "FS",
  "ScanningSequence": "EP",
  "SequenceName": "_epfid2d1_68",
  "SequenceVariant": "SK",
  "SeriesDescription": "ep2d_bold_RestEPI",
  "SeriesNumber": 11,
  "ShimSetting": [1969, -704, -7668, 586, 177, -87, -24, 52],
  "SliceThickness": 2.5,
  "SliceTiming": [1.9525, 1.895, 1.84, 1.785, 1.73, 1.6725, 1.6175, 1.5625, 1.505, 1.45, 1.395, 1.3375, 1.2825, 1.2275, 1.1725, 1.115, 1.06, 1.005, 0.9475, 0.8925, 0.8375, 0.78, 0.725, 0.67, 0.6125, 0.5575, 0.5025, 0.4475, 0.39, 0.335, 0.28, 0.2225, 0.1675, 0.1125, 0.055, 0],
  "SoftwareVersions": "syngo_MR_B19",
  "SpacingBetweenSlices": 3,
  "StationName": "MRC35450",
  "TaskName": "rest",
  "TotalReadoutTime": 0.0314901,
  "TxRefAmp": 306.343,
  "dcmmeta_affine": [
    [-3.0, 0.0, 0.0, 97.93220520019531],
    [0.0, 2.9756832122802734, -0.3811938464641571, -86.1029281616211],
    [0.0, 0.3811938464641571, 2.9756834506988525, -40.92504119873047],
    [0.0, 0.0, 0.0, 1.0]
],
  "dcmmeta_reorient_transform": [
    [0.0, -1.0, 0.0, 67.0],
    [1.0, 0.0, 0.0, 0.0],
    [0.0, 0.0, 1.0, 0.0],
    [0.0, 0.0, 0.0, 1.0]
],
  "dcmmeta_shape": [68, 68, 36, 240],
  "dcmmeta_slice_dim": 2,
  "dcmmeta_version": 0.6,
  "global": {
    "const": {
      "AcquisitionMatrix": [68, 0, 0, 68],
      "AngioFlag": "N",
      "BitsAllocated": 16,
      "BitsStored": 12,
      "Columns": 408,
      "EchoNumbers": 1,
      "EchoTime": 23.0,
      "EchoTrainLength": 1,
      "FlipAngle": 76.0,
      "HighBit": 11,
      "ImageOrientationPatient": [1.0, 0.0, 0.0, 0.0, 0.99189444198249, -0.1270646133439],
      "ImagePositionPatient": [-607.93220329285, -619.13401919793, 49.417899369299],
      "ImageType": [
        "ORIGINAL",
        "PRIMARY",
        "M",
        "ND",
        "MOSAIC"
],
      "ImagedNucleus": "1H",
      "ImagingFrequency": 123.218674,
      "InPlanePhaseEncodingDirection": "COL",
      "MRAcquisitionType": "2D",
      "MagneticFieldStrength": 3.0,
      "Manufacturer": "SIEMENS",
      "ManufacturerModelName": "TrioTim",
      "Modality": "MR",
      "NumberOfAverages": 1.0,
      "NumberOfPhaseEncodingSteps": 68,
      "PercentPhaseFieldOfView": 100.0,
      "PercentSampling": 100.0,
      "PerformedProcedureStepStartTime": "085940.593000",
      "PhotometricInterpretation": "MONOCHROME2",
      "PixelBandwidth": 2451.0,
      "PixelRepresentation": 0,
      "PixelSpacing": [3.0, 3.0],
      "ProtocolName": "ep2d_bold_RestEPI",
      "RepetitionTime": 2000.0,
      "Rows": 408,
      "SAR": 0.15749026286731,
      "SamplesPerPixel": 1,
      "ScanOptions": "FS",
      "ScanningSequence": "EP",
      "SequenceName": "*epfid2d1_68",
      "SequenceVariant": "SK",
      "SeriesDescription": "ep2d_bold_RestEPI",
      "SeriesNumber": 11,
      "SeriesTime": "101245.984000",
      "SliceLocation": -29.652685038608,
      "SliceThickness": 2.5,
      "SmallestImagePixelValue": 0,
      "SoftwareVersions": "syngo MR B19",
      "SpacingBetweenSlices": 3.0000001007169,
      "SpecificCharacterSet": "ISO_IR 100",
      "StudyID": "1",
      "StudyTime": "085940.562000",
      "TransmitCoilName": "Body",
      "VariableFlipAngleFlag": "N",
      "WindowCenterWidthExplanation": "Algo1",
      "dBdt": 0.0},
    "slices": {}
  },
  "time": {
    "samples": {
      "AcquisitionNumber": [1, 2, 3, 4, 5, 6, 7, 8, 9, 10, 11, 12, 13, 14, 15, 16, 17, 18, 19, 20, 21, 22, 23, 24, 25, 26, 27, 28, 29, 30, 31, 32, 33, 34, 35, 36, 37, 38, 39, 40, 41, 42, 43, 44, 45, 46, 47, 48, 49, 50, 51, 52, 53, 54, 55, 56, 57, 58, 59, 60, 61, 62, 63, 64, 65, 66, 67, 68, 69, 70, 71, 72, 73, 74, 75, 76, 77, 78, 79, 80, 81, 82, 83, 84, 85, 86, 87, 88, 89, 90, 91, 92, 93, 94, 95, 96, 97, 98, 99, 100, 101, 102, 103, 104, 105, 106, 107, 108, 109, 110, 111, 112, 113, 114, 115, 116, 117, 118, 119, 120, 121, 122, 123, 124, 125, 126, 127, 128, 129, 130, 131, 132, 133, 134, 135, 136, 137, 138, 139, 140, 141, 142, 143, 144, 145, 146, 147, 148, 149, 150, 151, 152, 153, 154, 155, 156, 157, 158, 159, 160, 161, 162, 163, 164, 165, 166, 167, 168, 169, 170, 171, 172, 173, 174, 175, 176, 177, 178, 179, 180, 181, 182, 183, 184, 185, 186, 187, 188, 189, 190, 191, 192, 193, 194, 195, 196, 197, 198, 199, 200, 201, 202, 203, 204, 205, 206, 207, 208, 209, 210, 211, 212, 213, 214, 215, 216, 217, 218, 219, 220, 221, 222, 223, 224, 225, 226, 227, 228, 229, 230, 231, 232, 233, 234, 235, 236, 237, 238, 239, 240],
      "AcquisitionTime": ["101154.710000", "101156.717500", "101158.725000", "101200.732500", "101202.742500", "101204.750000", "101206.757500", "101208.765000", "101210.775000", "101212.782500", "101214.790000", "101216.797500", "101218.805000", "101220.815000", "101222.822500", "101224.830000", "101226.837500", "101228.845000", "101230.855000", "101232.862500", "101234.870000", "101236.877500", "101238.885000", "101240.895000", "101242.902500", "101244.910000", "101246.917500", "101248.927500", "101250.935000", "101252.942500", "101254.950000", "101256.957500", "101258.967500", "101300.975000", "101302.982500", "101304.990000", "101306.997500", "101309.007500", "101311.015000", "101313.022500", "101315.030000", "101317.040000", "101319.047500", "101321.055000", "101323.062500", "101325.070000", "101327.080000", "101329.087500", "101331.095000", "101333.102500", "101335.110000", "101337.120000", "101339.127500", "101341.135000", "101343.142500", "101345.152500", "101347.160000", "101349.167500", "101351.175000", "101353.182500", "101355.192500", "101357.200000", "101359.207500", "101401.215000", "101403.222500", "101405.232500", "101407.240000", "101409.247500", "101411.255000", "101413.262500", "101415.272500", "101417.280000", "101419.287500", "101421.295000", "101423.305000", "101425.312500", "101427.320000", "101429.327500", "101431.335000", "101433.345000", "101435.352500", "101437.360000", "101439.367500", "101441.375000", "101443.385000", "101445.392500", "101447.400000", "101449.407500", "101451.417500", "101453.425000", "101455.432500", "101457.440000", "101459.447500", "101501.457500", "101503.465000", "101505.472500", "101507.480000", "101509.487500", "101511.497500", "101513.505000", "101515.512500", "101517.520000", "101519.530000", "101521.537500", "101523.545000", "101525.552500", "101527.560000", "101529.570000", "101531.577500", "101533.585000", "101535.592500", "101537.600000", "101539.610000", "101541.617500", "101543.625000", "101545.632500", "101547.640000", "101549.650000", "101551.657500", "101553.665000", "101555.672500", "101557.682500", "101559.690000", "101601.697500", "101603.705000", "101605.712500", "101607.722500", "101609.730000", "101611.737500", "101613.745000", "101615.752500", "101617.762500", "101619.770000", "101621.777500", "101623.785000", "101625.795000", "101627.802500", "101629.810000", "101631.817500", "101633.825000", "101635.835000", "101637.842500", "101639.850000", "101641.857500", "101643.865000", "101645.875000", "101647.882500", "101649.890000", "101651.897500", "101653.907500", "101655.915000", "101657.922500", "101659.930000", "101701.937500", "101703.947500", "101705.955000", "101707.962500", "101709.970000", "101711.977500", "101713.987500", "101715.995000", "101718.002500", "101720.010000", "101722.017500", "101724.027500", "101726.035000", "101728.042500", "101730.050000", "101732.060000", "101734.067500", "101736.075000", "101738.082500", "101740.090000", "101742.100000", "101744.107500", "101746.115000", "101748.122500", "101750.130000", "101752.140000", "101754.147500", "101756.155000", "101758.162500", "101800.172500", "101802.180000", "101804.187500", "101806.195000", "101808.202500", "101810.212500", "101812.220000", "101814.227500", "101816.235000", "101818.242500", "101820.252500", "101822.260000", "101824.267500", "101826.275000", "101828.285000", "101830.292500", "101832.300000", "101834.307500", "101836.315000", "101838.325000", "101840.332500", "101842.340000", "101844.347500", "101846.355000", "101848.365000", "101850.372500", "101852.380000", "101854.387500", "101856.395000", "101858.405000", "101900.412500", "101902.420000", "101904.427500", "101906.437500", "101908.445000", "101910.452500", "101912.460000", "101914.467500", "101916.477500", "101918.485000", "101920.492500", "101922.500000", "101924.507500", "101926.517500", "101928.525000", "101930.532500", "101932.540000", "101934.550000", "101936.557500", "101938.565000", "101940.572500", "101942.580000", "101944.590000", "101946.597500", "101948.605000", "101950.612500", "101952.620000", "101954.630000"],
      "ContentTime": ["101245.984000", "101245.984000", "101245.984000", "101246.000000", "101246.000000", "101246.000000", "101246.000000", "101246.000000", "101246.000000", "101246.000000", "101246.000000", "101246.015000", "101246.015000", "101246.015000", "101246.015000", "101246.015000", "101246.015000", "101246.015000", "101246.031000", "101246.031000", "101246.031000", "101246.031000", "101246.031000", "101246.031000", "101246.031000", "101325.984000", "101325.984000", "101325.984000", "101325.984000", "101325.984000", "101325.984000", "101326.000000", "101326.000000", "101326.000000", "101326.000000", "101326.000000", "101326.000000", "101326.000000", "101326.015000", "101326.015000", "101326.015000", "101326.015000", "101326.015000", "101326.015000", "101326.015000", "101405.984000", "101405.984000", "101405.984000", "101405.984000", "101405.984000", "101406.000000", "101406.000000", "101406.000000", "101406.000000", "101406.000000", "101406.000000", "101406.000000", "101406.000000", "101406.015000", "101406.015000", "101406.015000", "101406.015000", "101406.015000", "101406.015000", "101406.015000", "101445.984000", "101445.984000", "101445.984000", "101445.984000", "101445.984000", "101446.000000", "101446.000000", "101446.000000", "101446.000000", "101446.000000", "101446.000000", "101446.000000", "101446.000000", "101446.015000", "101446.015000", "101446.015000", "101446.015000", "101446.015000", "101446.015000", "101446.015000", "101525.984000", "101525.984000", "101525.984000", "101525.984000", "101525.984000", "101526.000000", "101526.000000", "101526.000000", "101526.000000", "101526.000000", "101526.000000", "101526.000000", "101526.000000", "101526.015000", "101526.015000", "101526.015000", "101526.015000", "101526.015000", "101526.015000", "101526.015000", "101605.984000", "101605.984000", "101605.984000", "101605.984000", "101605.984000", "101606.000000", "101606.000000", "101606.000000", "101606.000000", "101606.000000", "101606.000000", "101606.000000", "101606.000000", "101606.015000", "101606.015000", "101606.015000", "101606.015000", "101606.015000", "101606.015000", "101606.015000", "101645.984000", "101645.984000", "101645.984000", "101645.984000", "101645.984000", "101645.984000", "101646.000000", "101646.000000", "101646.000000", "101646.000000", "101646.000000", "101646.000000", "101646.000000", "101646.015000", "101646.015000", "101646.015000", "101646.015000", "101646.015000", "101646.015000", "101646.015000", "101725.984000", "101725.984000", "101725.984000", "101725.984000", "101725.984000", "101726.000000", "101726.000000", "101726.000000", "101726.000000", "101726.000000", "101726.000000", "101726.000000", "101726.000000", "101726.015000", "101726.015000", "101726.015000", "101726.015000", "101726.015000", "101726.015000", "101726.015000", "101805.984000", "101805.984000", "101805.984000", "101805.984000", "101805.984000", "101806.000000", "101806.000000", "101806.000000", "101806.000000", "101806.000000", "101806.000000", "101806.000000", "101806.000000", "101806.015000", "101806.015000", "101806.015000", "101806.015000", "101806.015000", "101806.015000", "101806.015000", "101845.984000", "101845.984000", "101845.984000", "101845.984000", "101845.984000", "101846.000000", "101846.000000", "101846.000000", "101846.000000", "101846.000000", "101846.000000", "101846.000000", "101846.000000", "101846.015000", "101846.015000", "101846.015000", "101846.015000", "101846.015000", "101846.015000", "101846.015000", "101925.984000", "101925.984000", "101925.984000", "101925.984000", "101925.984000", "101925.984000", "101926.000000", "101926.000000", "101926.000000", "101926.000000", "101926.000000", "101926.000000", "101926.000000", "101926.015000", "101926.015000", "101926.015000", "101926.015000", "101926.015000", "101926.015000", "101926.015000", "101954.234000", "101954.234000", "101954.234000", "101954.250000", "101954.250000", "101954.250000", "101954.250000", "101954.250000", "101954.250000", "101954.250000", "101954.265000", "101954.265000", "101954.265000", "101954.265000", "101954.265000"],
      "InstanceCreationTime": ["101245.984000", "101245.984000", "101245.984000", "101246.000000", "101246.000000", "101246.000000", "101246.000000", "101246.000000", "101246.000000", "101246.000000", "101246.000000", "101246.015000", "101246.015000", "101246.015000", "101246.015000", "101246.015000", "101246.015000", "101246.015000", "101246.031000", "101246.031000", "101246.031000", "101246.031000", "101246.031000", "101246.031000", "101246.031000", "101325.984000", "101325.984000", "101325.984000", "101325.984000", "101325.984000", "101325.984000", "101326.000000", "101326.000000", "101326.000000", "101326.000000", "101326.000000", "101326.000000", "101326.000000", "101326.015000", "101326.015000", "101326.015000", "101326.015000", "101326.015000", "101326.015000", "101326.015000", "101405.984000", "101405.984000", "101405.984000", "101405.984000", "101405.984000", "101406.000000", "101406.000000", "101406.000000", "101406.000000", "101406.000000", "101406.000000", "101406.000000", "101406.000000", "101406.015000", "101406.015000", "101406.015000", "101406.015000", "101406.015000", "101406.015000", "101406.015000", "101445.984000", "101445.984000", "101445.984000", "101445.984000", "101445.984000", "101446.000000", "101446.000000", "101446.000000", "101446.000000", "101446.000000", "101446.000000", "101446.000000", "101446.000000", "101446.015000", "101446.015000", "101446.015000", "101446.015000", "101446.015000", "101446.015000", "101446.015000", "101525.984000", "101525.984000", "101525.984000", "101525.984000", "101525.984000", "101526.000000", "101526.000000", "101526.000000", "101526.000000", "101526.000000", "101526.000000", "101526.000000", "101526.000000", "101526.015000", "101526.015000", "101526.015000", "101526.015000", "101526.015000", "101526.015000", "101526.015000", "101605.984000", "101605.984000", "101605.984000", "101605.984000", "101605.984000", "101606.000000", "101606.000000", "101606.000000", "101606.000000", "101606.000000", "101606.000000", "101606.000000", "101606.000000", "101606.015000", "101606.015000", "101606.015000", "101606.015000", "101606.015000", "101606.015000", "101606.015000", "101645.984000", "101645.984000", "101645.984000", "101645.984000", "101645.984000", "101645.984000", "101646.000000", "101646.000000", "101646.000000", "101646.000000", "101646.000000", "101646.000000", "101646.000000", "101646.015000", "101646.015000", "101646.015000", "101646.015000", "101646.015000", "101646.015000", "101646.015000", "101725.984000", "101725.984000", "101725.984000", "101725.984000", "101725.984000", "101726.000000", "101726.000000", "101726.000000", "101726.000000", "101726.000000", "101726.000000", "101726.000000", "101726.000000", "101726.015000", "101726.015000", "101726.015000", "101726.015000", "101726.015000", "101726.015000", "101726.015000", "101805.984000", "101805.984000", "101805.984000", "101805.984000", "101805.984000", "101806.000000", "101806.000000", "101806.000000", "101806.000000", "101806.000000", "101806.000000", "101806.000000", "101806.000000", "101806.015000", "101806.015000", "101806.015000", "101806.015000", "101806.015000", "101806.015000", "101806.015000", "101845.984000", "101845.984000", "101845.984000", "101845.984000", "101845.984000", "101846.000000", "101846.000000", "101846.000000", "101846.000000", "101846.000000", "101846.000000", "101846.000000", "101846.000000", "101846.015000", "101846.015000", "101846.015000", "101846.015000", "101846.015000", "101846.015000", "101846.015000", "101925.984000", "101925.984000", "101925.984000", "101925.984000", "101925.984000", "101925.984000", "101926.000000", "101926.000000", "101926.000000", "101926.000000", "101926.000000", "101926.000000", "101926.000000", "101926.015000", "101926.015000", "101926.015000", "101926.015000", "101926.015000", "101926.015000", "101926.015000", "101954.234000", "101954.234000", "101954.234000", "101954.250000", "101954.250000", "101954.250000", "101954.250000", "101954.250000", "101954.250000", "101954.250000", "101954.265000", "101954.265000", "101954.265000", "101954.265000", "101954.265000"],
      "InstanceNumber": [1, 2, 3, 4, 5, 6, 7, 8, 9, 10, 11, 12, 13, 14, 15, 16, 17, 18, 19, 20, 21, 22, 23, 24, 25, 26, 27, 28, 29, 30, 31, 32, 33, 34, 35, 36, 37, 38, 39, 40, 41, 42, 43, 44, 45, 46, 47, 48, 49, 50, 51, 52, 53, 54, 55, 56, 57, 58, 59, 60, 61, 62, 63, 64, 65, 66, 67, 68, 69, 70, 71, 72, 73, 74, 75, 76, 77, 78, 79, 80, 81, 82, 83, 84, 85, 86, 87, 88, 89, 90, 91, 92, 93, 94, 95, 96, 97, 98, 99, 100, 101, 102, 103, 104, 105, 106, 107, 108, 109, 110, 111, 112, 113, 114, 115, 116, 117, 118, 119, 120, 121, 122, 123, 124, 125, 126, 127, 128, 129, 130, 131, 132, 133, 134, 135, 136, 137, 138, 139, 140, 141, 142, 143, 144, 145, 146, 147, 148, 149, 150, 151, 152, 153, 154, 155, 156, 157, 158, 159, 160, 161, 162, 163, 164, 165, 166, 167, 168, 169, 170, 171, 172, 173, 174, 175, 176, 177, 178, 179, 180, 181, 182, 183, 184, 185, 186, 187, 188, 189, 190, 191, 192, 193, 194, 195, 196, 197, 198, 199, 200, 201, 202, 203, 204, 205, 206, 207, 208, 209, 210, 211, 212, 213, 214, 215, 216, 217, 218, 219, 220, 221, 222, 223, 224, 225, 226, 227, 228, 229, 230, 231, 232, 233, 234, 235, 236, 237, 238, 239, 240],
      "LargestImagePixelValue": [1957, 1901, 1801, 1865, 1797, 1828, 1930, 1954, 1851, 1775, 1790, 1876, 1784, 1783, 1809, 1829, 1781, 1787, 1843, 1845, 1818, 1848, 1777, 1951, 1787, 1825, 1785, 1796, 1791, 1773, 1825, 1796, 1835, 1805, 1855, 1869, 1889, 1816, 1846, 1837, 1832, 1823, 1812, 1823, 1813, 1774, 1793, 1801, 1826, 1833, 1825, 1772, 1850, 1786, 1792, 1766, 1799, 1869, 1809, 1763, 1862, 1780, 1773, 1781, 1834, 1834, 1797, 1803, 1778, 1810, 1787, 1814, 1830, 1815, 1791, 1792, 1886, 1771, 1729, 1758, 1748, 1795, 1803, 1867, 1822, 2104, 2138, 2030, 1764, 1772, 1788, 1863, 1783, 1821, 1822, 1821, 1790, 1855, 1808, 1772, 1785, 1767, 1800, 1800, 1803, 1810, 1763, 1750, 1804, 1858, 1775, 1797, 1800, 1772, 1800, 1809, 1797, 1790, 1764, 1851, 1791, 1815, 1811, 1812, 1816, 1805, 1812, 1776, 1816, 1822, 1842, 1800, 1769, 1811, 1825, 1847, 1851, 1846, 1809, 1834, 1784, 1785, 1830, 1839, 1820, 1832, 1814, 1805, 1785, 1771, 1798, 1819, 1837, 1834, 1771, 1795, 1794, 1779, 1805, 1749, 1806, 1795, 1801, 1789, 1809, 1763, 1837, 1799, 1797, 1781, 1794, 1802, 1787, 1841, 1887, 1872, 1806, 1927, 2126, 2248, 1765, 1809, 1750, 1798, 1797, 1763, 1820, 1803, 1783, 1822, 1821, 1785, 1790, 1784, 1852, 1804, 1801, 1824, 1801, 1773, 1794, 1809, 1760, 1831, 1801, 1832, 1816, 1825, 1816, 1768, 1849, 1822, 1784, 1789, 2024, 1813, 1794, 1828, 1796, 1796, 1842, 1780, 1785, 1820, 1796, 1796, 1787, 1790, 1792, 1814, 1828, 1831, 1836, 1848, 1789, 1784, 1806, 1827, 1793, 1761],
      "WindowCenter": [798.0, 796.0, 794.0, 793.0, 791.0, 791.0, 793.0, 796.0, 795.0, 791.0, 791.0, 791.0, 787.0, 787.0, 788.0, 789.0, 789.0, 789.0, 794.0, 794.0, 794.0, 793.0, 791.0, 795.0, 791.0, 792.0, 791.0, 792.0, 792.0, 791.0, 792.0, 791.0, 791.0, 790.0, 792.0, 792.0, 792.0, 792.0, 793.0, 794.0, 794.0, 792.0, 792.0, 792.0, 792.0, 791.0, 792.0, 792.0, 793.0, 793.0, 793.0, 793.0, 794.0, 791.0, 791.0, 790.0, 791.0, 793.0, 792.0, 791.0, 793.0, 791.0, 792.0, 792.0, 793.0, 793.0, 792.0, 792.0, 792.0, 794.0, 793.0, 794.0, 794.0, 793.0, 792.0, 799.0, 793.0, 791.0, 792.0, 791.0, 791.0, 793.0, 795.0, 799.0, 796.0, 799.0, 796.0, 794.0, 788.0, 788.0, 788.0, 791.0, 789.0, 791.0, 792.0, 792.0, 792.0, 794.0, 792.0, 793.0, 793.0, 791.0, 792.0, 792.0, 793.0, 794.0, 793.0, 793.0, 794.0, 795.0, 794.0, 794.0, 794.0, 794.0, 795.0, 794.0, 795.0, 795.0, 794.0, 795.0, 794.0, 795.0, 797.0, 796.0, 796.0, 795.0, 795.0, 794.0, 795.0, 796.0, 796.0, 795.0, 794.0, 795.0, 795.0, 795.0, 795.0, 795.0, 794.0, 795.0, 795.0, 795.0, 799.0, 799.0, 797.0, 797.0, 796.0, 795.0, 794.0, 794.0, 795.0, 796.0, 796.0, 796.0, 795.0, 795.0, 794.0, 794.0, 794.0, 793.0, 795.0, 795.0, 795.0, 795.0, 796.0, 795.0, 797.0, 795.0, 796.0, 795.0, 795.0, 795.0, 794.0, 797.0, 802.0, 797.0, 798.0, 797.0, 798.0, 797.0, 789.0, 790.0, 790.0, 792.0, 792.0, 793.0, 795.0, 795.0, 795.0, 794.0, 794.0, 793.0, 794.0, 793.0, 795.0, 794.0, 795.0, 796.0, 796.0, 796.0, 796.0, 798.0, 796.0, 798.0, 798.0, 798.0, 798.0, 795.0, 796.0, 794.0, 797.0, 797.0, 797.0, 797.0, 800.0, 794.0, 793.0, 794.0, 794.0, 794.0, 795.0, 794.0, 796.0, 797.0, 795.0, 795.0, 794.0, 794.0, 795.0, 795.0, 795.0, 796.0, 797.0, 796.0, 795.0, 795.0, 796.0, 797.0, 795.0, 794.0],
      "WindowWidth": [1679.0, 1673.0, 1667.0, 1666.0, 1660.0, 1659.0, 1665.0, 1676.0, 1669.0, 1661.0, 1660.0, 1660.0, 1651.0, 1650.0, 1652.0, 1655.0, 1654.0, 1657.0, 1667.0, 1668.0, 1666.0, 1664.0, 1660.0, 1670.0, 1660.0, 1662.0, 1659.0, 1662.0, 1662.0, 1660.0, 1662.0, 1660.0, 1661.0, 1659.0, 1661.0, 1662.0, 1664.0, 1663.0, 1666.0, 1668.0, 1667.0, 1663.0, 1663.0, 1663.0, 1662.0, 1661.0, 1663.0, 1664.0, 1665.0, 1664.0, 1666.0, 1665.0, 1666.0, 1660.0, 1659.0, 1657.0, 1661.0, 1665.0, 1662.0, 1660.0, 1664.0, 1661.0, 1661.0, 1662.0, 1665.0, 1665.0, 1662.0, 1661.0, 1662.0, 1667.0, 1666.0, 1668.0, 1667.0, 1665.0, 1663.0, 1679.0, 1668.0, 1662.0, 1664.0, 1661.0, 1660.0, 1665.0, 1672.0, 1680.0, 1672.0, 1680.0, 1673.0, 1667.0, 1652.0, 1653.0, 1653.0, 1660.0, 1656.0, 1661.0, 1664.0, 1664.0, 1663.0, 1667.0, 1663.0, 1664.0, 1664.0, 1662.0, 1663.0, 1664.0, 1665.0, 1667.0, 1664.0, 1665.0, 1666.0, 1669.0, 1666.0, 1667.0, 1668.0, 1669.0, 1669.0, 1668.0, 1669.0, 1669.0, 1668.0, 1670.0, 1668.0, 1669.0, 1673.0, 1673.0, 1672.0, 1670.0, 1670.0, 1668.0, 1670.0, 1672.0, 1673.0, 1669.0, 1666.0, 1669.0, 1669.0, 1669.0, 1670.0, 1670.0, 1667.0, 1671.0, 1669.0, 1670.0, 1679.0, 1680.0, 1676.0, 1674.0, 1671.0, 1669.0, 1668.0, 1667.0, 1669.0, 1671.0, 1673.0, 1672.0, 1669.0, 1669.0, 1668.0, 1666.0, 1668.0, 1666.0, 1670.0, 1670.0, 1671.0, 1670.0, 1671.0, 1670.0, 1674.0, 1670.0, 1671.0, 1671.0, 1670.0, 1669.0, 1667.0, 1674.0, 1691.0, 1676.0, 1677.0, 1676.0, 1679.0, 1677.0, 1655.0, 1658.0, 1658.0, 1663.0, 1664.0, 1666.0, 1670.0, 1670.0, 1669.0, 1667.0, 1667.0, 1665.0, 1668.0, 1667.0, 1671.0, 1669.0, 1671.0, 1672.0, 1672.0, 1671.0, 1672.0, 1676.0, 1674.0, 1678.0, 1676.0, 1679.0, 1676.0, 1671.0, 1671.0, 1668.0, 1674.0, 1675.0, 1674.0, 1674.0, 1682.0, 1668.0, 1665.0, 1667.0, 1668.0, 1668.0, 1671.0, 1668.0, 1671.0, 1674.0, 1671.0, 1668.0, 1667.0, 1668.0, 1669.0, 1671.0, 1671.0, 1673.0, 1674.0, 1673.0, 1670.0, 1669.0, 1671.0, 1674.0, 1670.0, 1667.0]
    },
    "slices": {}
  }
}