{
  "AcquisitionMatrixPE": 68,
  "AcquisitionNumber": 1,
  "AcquisitionTime": "11:01:37.827500",
  "BandwidthPerPixelPhaseEncode": 31.289,
  "BaseResolution": 68,
  "CoilString": "C:HEA;HEP",
  "ConversionSoftware": "dcm2niix",
  "ConversionSoftwareVersion": "v1.0.20190902",
  "DerivedVendorReportedEchoSpacing": 0.000470002,
  "DeviceSerialNumber": "35450",
  "DwellTime": 3e-06,
  "EchoTime": 0.023,
  "EffectiveEchoSpacing": 0.000470002,
  "FlipAngle": 76,
  "ImageOrientationPatientDICOM": [0.999781, 0.00237076, 0.0208078, -1.18211e-08, 0.993572, -0.113203],
  "ImageType": [
    "ORIGINAL",
    "PRIMARY",
    "M",
    "ND",
    "MOSAIC"
],
  "ImagingFrequency": 123.218,
  "InPlanePhaseEncodingDirectionDICOM": "COL",
  "InstitutionAddress": "Univeristy_Ave._197_Newark_North_East_US_07102-1814",
  "InstitutionName": "RUBIC",
  "InstitutionalDepartmentName": "Department",
  "MRAcquisitionType": "2D",
  "MagneticFieldStrength": 3,
  "Manufacturer": "Siemens",
  "ManufacturersModelName": "TrioTim",
  "Modality": "MR",
  "PartialFourier": 1,
  "PatientPosition": "HFS",
  "PercentPhaseFOV": 100,
  "PhaseEncodingDirection": "j-",
  "PhaseEncodingSteps": 68,
  "PhaseResolution": 1,
  "PixelBandwidth": 2451,
  "ProcedureStepDescription": "Krekelberg_David",
  "ProtocolName": "ep2d_bold_CardGameEPI_1",
  "PulseSequenceDetails": "%SiemensSeq%_ep2d_bold",
  "ReceiveCoilName": "HeadMatrix",
  "ReconMatrixPE": 68,
  "RepetitionTime": 2,
  "SAR": 0.176436,
  "ScanOptions": "FS",
  "ScanningSequence": "EP",
  "SequenceName": "_epfid2d1_68",
  "SequenceVariant": "SK",
  "SeriesDescription": "ep2d_bold_CardGameEPI_1",
  "SeriesNumber": 6,
  "ShimSetting": [1950, -618, -7561, 948, -26, -118, -633, -176],
  "SliceThickness": 2.5,
  "SliceTiming": [1.9525, 1.8975, 1.84, 1.785, 1.73, 1.6725, 1.6175, 1.5625, 1.5075, 1.45, 1.395, 1.34, 1.2825, 1.2275, 1.1725, 1.115, 1.06, 1.005, 0.95, 0.8925, 0.8375, 0.7825, 0.725, 0.67, 0.615, 0.5575, 0.5025, 0.4475, 0.39, 0.335, 0.28, 0.225, 0.1675, 0.1125, 0.0575, 0],
  "SoftwareVersions": "syngo_MR_B19",
  "SpacingBetweenSlices": 3,
  "StationName": "MRC35450",
  "TaskName": "cardgame",
  "TotalReadoutTime": 0.0314901,
  "TxRefAmp": 332.161,
  "dcmmeta_affine": [
    [-2.9993419647216797, -3.546322346892339e-08, 0.06282725930213928, 102.91205596923828],
    [-0.007112282328307629, 2.98071551322937, -0.3395351469516754, -68.44629669189453],
    [0.06242339313030243, 0.33960962295532227, 2.9800620079040527, -76.3277816772461],
    [0.0, 0.0, 0.0, 1.0]
],
  "dcmmeta_reorient_transform": [
    [0.0, -1.0, 0.0, 67.0],
    [1.0, 0.0, 0.0, 0.0],
    [0.0, 0.0, 1.0, 0.0],
    [0.0, 0.0, 0.0, 1.0]
],
  "dcmmeta_shape": [68, 68, 36, 258],
  "dcmmeta_slice_dim": 2,
  "dcmmeta_version": 0.6,
  "global": {
    "const": {
      "AcquisitionMatrix": [68, 0, 0, 68],
      "AngioFlag": "N",
      "BitsAllocated": 16,
      "BitsStored": 12,
      "Columns": 408,
      "EchoNumbers": 1,
      "EchoTime": 23.0,
      "EchoTrainLength": 1,
      "FlipAngle": 76.0,
      "HighBit": 11,
      "ImageOrientationPatient": [0.99978068347422, 0.002370760821, 0.02080779769603, -1.1821075e-08, 0.99357185654589, -0.1132032061382],
      "ImagePositionPatient": [-612.80019235261, -639.19238460564, -6.4522781608621],
      "ImageType": [
        "ORIGINAL",
        "PRIMARY",
        "M",
        "ND",
        "MOSAIC"
],
      "ImagedNucleus": "1H",
      "ImagingFrequency": 123.218468,
      "InPlanePhaseEncodingDirection": "COL",
      "MRAcquisitionType": "2D",
      "MagneticFieldStrength": 3.0,
      "Manufacturer": "SIEMENS",
      "ManufacturerModelName": "TrioTim",
      "Modality": "MR",
      "NumberOfAverages": 1.0,
      "NumberOfPhaseEncodingSteps": 68,
      "PercentPhaseFieldOfView": 100.0,
      "PercentSampling": 100.0,
      "PerformedProcedureStepStartTime": "103205.531000",
      "PhotometricInterpretation": "MONOCHROME2",
      "PixelBandwidth": 2451.0,
      "PixelRepresentation": 0,
      "PixelSpacing": [3.0, 3.0],
      "ProtocolName": "ep2d_bold_CardGameEPI_1",
      "RepetitionTime": 2000.0,
      "Rows": 408,
      "SAR": 0.17643596486309,
      "SamplesPerPixel": 1,
      "ScanOptions": "FS",
      "ScanningSequence": "EP",
      "SequenceName": "*epfid2d1_68",
      "SequenceVariant": "SK",
      "SeriesDescription": "ep2d_bold_CardGameEPI_1",
      "SeriesNumber": 6,
      "SeriesTime": "110226.625000",
      "SliceLocation": -65.91863472182,
      "SliceThickness": 2.5,
      "SmallestImagePixelValue": 0,
      "SoftwareVersions": "syngo MR B19",
      "SpacingBetweenSlices": 3.0000000422906,
      "SpecificCharacterSet": "ISO_IR 100",
      "StudyID": "1",
      "StudyTime": "103205.406000",
      "TransmitCoilName": "Body",
      "VariableFlipAngleFlag": "N",
      "WindowCenterWidthExplanation": "Algo1",
      "dBdt": 0.0},
    "slices": {}
  },
  "time": {
    "samples": {
      "AcquisitionNumber": [1, 2, 3, 4, 5, 6, 7, 8, 9, 10, 11, 12, 13, 14, 15, 16, 17, 18, 19, 20, 21, 22, 23, 24, 25, 26, 27, 28, 29, 30, 31, 32, 33, 34, 35, 36, 37, 38, 39, 40, 41, 42, 43, 44, 45, 46, 47, 48, 49, 50, 51, 52, 53, 54, 55, 56, 57, 58, 59, 60, 61, 62, 63, 64, 65, 66, 67, 68, 69, 70, 71, 72, 73, 74, 75, 76, 77, 78, 79, 80, 81, 82, 83, 84, 85, 86, 87, 88, 89, 90, 91, 92, 93, 94, 95, 96, 97, 98, 99, 100, 101, 102, 103, 104, 105, 106, 107, 108, 109, 110, 111, 112, 113, 114, 115, 116, 117, 118, 119, 120, 121, 122, 123, 124, 125, 126, 127, 128, 129, 130, 131, 132, 133, 134, 135, 136, 137, 138, 139, 140, 141, 142, 143, 144, 145, 146, 147, 148, 149, 150, 151, 152, 153, 154, 155, 156, 157, 158, 159, 160, 161, 162, 163, 164, 165, 166, 167, 168, 169, 170, 171, 172, 173, 174, 175, 176, 177, 178, 179, 180, 181, 182, 183, 184, 185, 186, 187, 188, 189, 190, 191, 192, 193, 194, 195, 196, 197, 198, 199, 200, 201, 202, 203, 204, 205, 206, 207, 208, 209, 210, 211, 212, 213, 214, 215, 216, 217, 218, 219, 220, 221, 222, 223, 224, 225, 226, 227, 228, 229, 230, 231, 232, 233, 234, 235, 236, 237, 238, 239, 240, 241, 242, 243, 244, 245, 246, 247, 248, 249, 250, 251, 252, 253, 254, 255, 256, 257, 258],
      "AcquisitionTime": ["110137.827500", "110139.835000", "110141.842500", "110143.852500", "110145.860000", "110147.867500", "110149.875000", "110151.885000", "110153.892500", "110155.900000", "110157.907500", "110159.915000", "110201.925000", "110203.932500", "110205.940000", "110207.947500", "110209.955000", "110211.965000", "110213.972500", "110215.980000", "110217.987500", "110219.995000", "110222.005000", "110224.012500", "110226.020000", "110228.027500", "110230.037500", "110232.045000", "110234.052500", "110236.060000", "110238.067500", "110240.077500", "110242.085000", "110244.092500", "110246.100000", "110248.107500", "110250.117500", "110252.125000", "110254.132500", "110256.140000", "110258.150000", "110300.157500", "110302.165000", "110304.172500", "110306.180000", "110308.190000", "110310.197500", "110312.205000", "110314.212500", "110316.220000", "110318.230000", "110320.237500", "110322.245000", "110324.252500", "110326.262500", "110328.270000", "110330.277500", "110332.285000", "110334.292500", "110336.302500", "110338.310000", "110340.317500", "110342.325000", "110344.332500", "110346.342500", "110348.350000", "110350.357500", "110352.365000", "110354.372500", "110356.382500", "110358.390000", "110400.397500", "110402.405000", "110404.415000", "110406.422500", "110408.430000", "110410.437500", "110412.445000", "110414.455000", "110416.462500", "110418.470000", "110420.477500", "110422.485000", "110424.495000", "110426.502500", "110428.510000", "110430.517500", "110432.527500", "110434.535000", "110436.542500", "110438.550000", "110440.557500", "110442.567500", "110444.575000", "110446.582500", "110448.590000", "110450.597500", "110452.607500", "110454.615000", "110456.622500", "110458.630000", "110500.640000", "110502.647500", "110504.655000", "110506.662500", "110508.670000", "110510.680000", "110512.687500", "110514.695000", "110516.702500", "110518.710000", "110520.720000", "110522.727500", "110524.735000", "110526.742500", "110528.750000", "110530.760000", "110532.767500", "110534.775000", "110536.782500", "110538.792500", "110540.800000", "110542.807500", "110544.815000", "110546.822500", "110548.832500", "110550.840000", "110552.847500", "110554.855000", "110556.862500", "110558.872500", "110600.880000", "110602.887500", "110604.895000", "110606.905000", "110608.912500", "110610.920000", "110612.927500", "110614.935000", "110616.945000", "110618.952500", "110620.960000", "110622.967500", "110624.975000", "110626.985000", "110628.992500", "110631.000000", "110633.007500", "110635.017500", "110637.025000", "110639.032500", "110641.040000", "110643.047500", "110645.057500", "110647.065000", "110649.072500", "110651.080000", "110653.087500", "110655.097500", "110657.105000", "110659.112500", "110701.120000", "110703.127500", "110705.137500", "110707.145000", "110709.152500", "110711.160000", "110713.170000", "110715.177500", "110717.185000", "110719.192500", "110721.200000", "110723.210000", "110725.217500", "110727.225000", "110729.232500", "110731.240000", "110733.250000", "110735.257500", "110737.265000", "110739.272500", "110741.282500", "110743.290000", "110745.297500", "110747.305000", "110749.312500", "110751.322500", "110753.330000", "110755.337500", "110757.345000", "110759.352500", "110801.362500", "110803.370000", "110805.377500", "110807.385000", "110809.395000", "110811.402500", "110813.410000", "110815.417500", "110817.425000", "110819.435000", "110821.442500", "110823.450000", "110825.457500", "110827.465000", "110829.475000", "110831.482500", "110833.490000", "110835.497500", "110837.505000", "110839.515000", "110841.522500", "110843.530000", "110845.537500", "110847.547500", "110849.555000", "110851.562500", "110853.570000", "110855.577500", "110857.587500", "110859.595000", "110901.602500", "110903.610000", "110905.617500", "110907.627500", "110909.635000", "110911.642500", "110913.650000", "110915.660000", "110917.667500", "110919.675000", "110921.682500", "110923.690000", "110925.700000", "110927.707500", "110929.715000", "110931.722500", "110933.730000", "110935.740000", "110937.747500", "110939.755000", "110941.762500", "110943.772500", "110945.780000", "110947.787500", "110949.795000", "110951.802500", "110953.812500", "110955.820000", "110957.827500", "110959.835000", "111001.842500", "111003.852500", "111005.860000", "111007.867500", "111009.875000", "111011.885000", "111013.892500"],
      "ContentTime": ["110226.640000", "110226.640000", "110226.656000", "110226.656000", "110226.656000", "110226.656000", "110226.656000", "110226.656000", "110226.656000", "110226.656000", "110226.671000", "110226.671000", "110226.671000", "110226.671000", "110226.671000", "110226.671000", "110226.671000", "110226.687000", "110226.687000", "110226.687000", "110226.687000", "110226.687000", "110226.687000", "110226.687000", "110306.625000", "110306.625000", "110306.625000", "110306.625000", "110306.625000", "110306.640000", "110306.640000", "110306.640000", "110306.640000", "110306.640000", "110306.640000", "110306.640000", "110306.656000", "110306.656000", "110306.656000", "110306.656000", "110306.656000", "110306.656000", "110306.656000", "110306.671000", "110346.625000", "110346.625000", "110346.625000", "110346.625000", "110346.625000", "110346.640000", "110346.640000", "110346.640000", "110346.640000", "110346.640000", "110346.640000", "110346.640000", "110346.656000", "110346.656000", "110346.656000", "110346.656000", "110346.656000", "110346.656000", "110346.656000", "110346.656000", "110426.625000", "110426.625000", "110426.625000", "110426.625000", "110426.625000", "110426.640000", "110426.640000", "110426.640000", "110426.640000", "110426.640000", "110426.640000", "110426.640000", "110426.656000", "110426.656000", "110426.656000", "110426.656000", "110426.656000", "110426.656000", "110426.656000", "110426.656000", "110506.625000", "110506.625000", "110506.625000", "110506.625000", "110506.625000", "110506.640000", "110506.640000", "110506.640000", "110506.640000", "110506.640000", "110506.640000", "110506.656000", "110506.656000", "110506.656000", "110506.656000", "110506.656000", "110506.656000", "110506.656000", "110506.671000", "110506.671000", "110546.625000", "110546.625000", "110546.625000", "110546.625000", "110546.625000", "110546.640000", "110546.640000", "110546.640000", "110546.640000", "110546.640000", "110546.640000", "110546.640000", "110546.656000", "110546.656000", "110546.656000", "110546.656000", "110546.656000", "110546.656000", "110546.656000", "110546.656000", "110626.625000", "110626.625000", "110626.625000", "110626.625000", "110626.640000", "110626.640000", "110626.640000", "110626.640000", "110626.640000", "110626.640000", "110626.640000", "110626.640000", "110626.656000", "110626.656000", "110626.656000", "110626.656000", "110626.656000", "110626.656000", "110626.656000", "110626.671000", "110706.625000", "110706.625000", "110706.625000", "110706.625000", "110706.625000", "110706.640000", "110706.640000", "110706.640000", "110706.640000", "110706.640000", "110706.640000", "110706.640000", "110706.656000", "110706.656000", "110706.656000", "110706.656000", "110706.656000", "110706.656000", "110706.656000", "110706.671000", "110746.625000", "110746.625000", "110746.625000", "110746.625000", "110746.625000", "110746.640000", "110746.640000", "110746.640000", "110746.640000", "110746.640000", "110746.640000", "110746.640000", "110746.656000", "110746.656000", "110746.656000", "110746.656000", "110746.656000", "110746.656000", "110746.656000", "110746.656000", "110826.625000", "110826.625000", "110826.625000", "110826.625000", "110826.625000", "110826.640000", "110826.640000", "110826.640000", "110826.640000", "110826.640000", "110826.640000", "110826.640000", "110826.656000", "110826.656000", "110826.656000", "110826.656000", "110826.656000", "110826.656000", "110826.656000", "110826.671000", "110906.625000", "110906.625000", "110906.625000", "110906.625000", "110906.625000", "110906.640000", "110906.640000", "110906.656000", "110906.656000", "110906.656000", "110906.656000", "110906.656000", "110906.656000", "110906.671000", "110906.671000", "110906.671000", "110906.671000", "110906.671000", "110906.671000", "110906.671000", "110946.625000", "110946.625000", "110946.625000", "110946.625000", "110946.625000", "110946.640000", "110946.640000", "110946.640000", "110946.640000", "110946.640000", "110946.640000", "110946.640000", "110946.656000", "110946.656000", "110946.656000", "110946.656000", "110946.656000", "110946.656000", "110946.656000", "110946.671000", "111013.718000", "111013.718000", "111013.718000", "111013.718000", "111013.718000", "111013.718000", "111013.718000", "111013.734000", "111013.734000", "111013.734000", "111013.734000", "111013.734000", "111013.750000", "111013.750000"],
      "InstanceCreationTime": ["110226.640000", "110226.640000", "110226.656000", "110226.656000", "110226.656000", "110226.656000", "110226.656000", "110226.656000", "110226.656000", "110226.656000", "110226.671000", "110226.671000", "110226.671000", "110226.671000", "110226.671000", "110226.671000", "110226.671000", "110226.687000", "110226.687000", "110226.687000", "110226.687000", "110226.687000", "110226.687000", "110226.687000", "110306.625000", "110306.625000", "110306.625000", "110306.625000", "110306.625000", "110306.640000", "110306.640000", "110306.640000", "110306.640000", "110306.640000", "110306.640000", "110306.640000", "110306.656000", "110306.656000", "110306.656000", "110306.656000", "110306.656000", "110306.656000", "110306.656000", "110306.671000", "110346.625000", "110346.625000", "110346.625000", "110346.625000", "110346.625000", "110346.640000", "110346.640000", "110346.640000", "110346.640000", "110346.640000", "110346.640000", "110346.640000", "110346.656000", "110346.656000", "110346.656000", "110346.656000", "110346.656000", "110346.656000", "110346.656000", "110346.656000", "110426.625000", "110426.625000", "110426.625000", "110426.625000", "110426.625000", "110426.640000", "110426.640000", "110426.640000", "110426.640000", "110426.640000", "110426.640000", "110426.640000", "110426.656000", "110426.656000", "110426.656000", "110426.656000", "110426.656000", "110426.656000", "110426.656000", "110426.656000", "110506.625000", "110506.625000", "110506.625000", "110506.625000", "110506.625000", "110506.640000", "110506.640000", "110506.640000", "110506.640000", "110506.640000", "110506.640000", "110506.656000", "110506.656000", "110506.656000", "110506.656000", "110506.656000", "110506.656000", "110506.656000", "110506.671000", "110506.671000", "110546.625000", "110546.625000", "110546.625000", "110546.625000", "110546.625000", "110546.640000", "110546.640000", "110546.640000", "110546.640000", "110546.640000", "110546.640000", "110546.640000", "110546.656000", "110546.656000", "110546.656000", "110546.656000", "110546.656000", "110546.656000", "110546.656000", "110546.656000", "110626.625000", "110626.625000", "110626.625000", "110626.625000", "110626.640000", "110626.640000", "110626.640000", "110626.640000", "110626.640000", "110626.640000", "110626.640000", "110626.640000", "110626.656000", "110626.656000", "110626.656000", "110626.656000", "110626.656000", "110626.656000", "110626.656000", "110626.671000", "110706.625000", "110706.625000", "110706.625000", "110706.625000", "110706.625000", "110706.640000", "110706.640000", "110706.640000", "110706.640000", "110706.640000", "110706.640000", "110706.640000", "110706.656000", "110706.656000", "110706.656000", "110706.656000", "110706.656000", "110706.656000", "110706.656000", "110706.671000", "110746.625000", "110746.625000", "110746.625000", "110746.625000", "110746.625000", "110746.640000", "110746.640000", "110746.640000", "110746.640000", "110746.640000", "110746.640000", "110746.640000", "110746.656000", "110746.656000", "110746.656000", "110746.656000", "110746.656000", "110746.656000", "110746.656000", "110746.656000", "110826.625000", "110826.625000", "110826.625000", "110826.625000", "110826.625000", "110826.640000", "110826.640000", "110826.640000", "110826.640000", "110826.640000", "110826.640000", "110826.640000", "110826.656000", "110826.656000", "110826.656000", "110826.656000", "110826.656000", "110826.656000", "110826.656000", "110826.671000", "110906.625000", "110906.625000", "110906.625000", "110906.625000", "110906.625000", "110906.640000", "110906.640000", "110906.656000", "110906.656000", "110906.656000", "110906.656000", "110906.656000", "110906.656000", "110906.671000", "110906.671000", "110906.671000", "110906.671000", "110906.671000", "110906.671000", "110906.671000", "110946.625000", "110946.625000", "110946.625000", "110946.625000", "110946.625000", "110946.640000", "110946.640000", "110946.640000", "110946.640000", "110946.640000", "110946.640000", "110946.640000", "110946.656000", "110946.656000", "110946.656000", "110946.656000", "110946.656000", "110946.656000", "110946.656000", "110946.671000", "111013.718000", "111013.718000", "111013.718000", "111013.718000", "111013.718000", "111013.718000", "111013.718000", "111013.734000", "111013.734000", "111013.734000", "111013.734000", "111013.734000", "111013.750000", "111013.750000"],
      "InstanceNumber": [1, 2, 3, 4, 5, 6, 7, 8, 9, 10, 11, 12, 13, 14, 15, 16, 17, 18, 19, 20, 21, 22, 23, 24, 25, 26, 27, 28, 29, 30, 31, 32, 33, 34, 35, 36, 37, 38, 39, 40, 41, 42, 43, 44, 45, 46, 47, 48, 49, 50, 51, 52, 53, 54, 55, 56, 57, 58, 59, 60, 61, 62, 63, 64, 65, 66, 67, 68, 69, 70, 71, 72, 73, 74, 75, 76, 77, 78, 79, 80, 81, 82, 83, 84, 85, 86, 87, 88, 89, 90, 91, 92, 93, 94, 95, 96, 97, 98, 99, 100, 101, 102, 103, 104, 105, 106, 107, 108, 109, 110, 111, 112, 113, 114, 115, 116, 117, 118, 119, 120, 121, 122, 123, 124, 125, 126, 127, 128, 129, 130, 131, 132, 133, 134, 135, 136, 137, 138, 139, 140, 141, 142, 143, 144, 145, 146, 147, 148, 149, 150, 151, 152, 153, 154, 155, 156, 157, 158, 159, 160, 161, 162, 163, 164, 165, 166, 167, 168, 169, 170, 171, 172, 173, 174, 175, 176, 177, 178, 179, 180, 181, 182, 183, 184, 185, 186, 187, 188, 189, 190, 191, 192, 193, 194, 195, 196, 197, 198, 199, 200, 201, 202, 203, 204, 205, 206, 207, 208, 209, 210, 211, 212, 213, 214, 215, 216, 217, 218, 219, 220, 221, 222, 223, 224, 225, 226, 227, 228, 229, 230, 231, 232, 233, 234, 235, 236, 237, 238, 239, 240, 241, 242, 243, 244, 245, 246, 247, 248, 249, 250, 251, 252, 253, 254, 255, 256, 257, 258],
      "LargestImagePixelValue": [1737, 1636, 1593, 1576, 1568, 1559, 1592, 1569, 1575, 1565, 1589, 1578, 1572, 1607, 1608, 1635, 1664, 1673, 1667, 1652, 1635, 1628, 1618, 1613, 1775, 1652, 1574, 1614, 1619, 1618, 1601, 1611, 1614, 1608, 1649, 1626, 1640, 1586, 1607, 1639, 1590, 1608, 1628, 1644, 1613, 1648, 1686, 1682, 1679, 1680, 1634, 1636, 1677, 1672, 1654, 1673, 1646, 1626, 1631, 1627, 1653, 1649, 1677, 1671, 1670, 1634, 1631, 1654, 1645, 1614, 1614, 1630, 1600, 1650, 1625, 1628, 1665, 1672, 1652, 1645, 1656, 1661, 1693, 1691, 1677, 1651, 1695, 1656, 1674, 1640, 1631, 1634, 1655, 1671, 1742, 1629, 1633, 1666, 1644, 1621, 1631, 1634, 1607, 1659, 1660, 1653, 1665, 1673, 1694, 1674, 1692, 1696, 1698, 1675, 1655, 1672, 1676, 1678, 1644, 1649, 1650, 1650, 1658, 1670, 1668, 1642, 1665, 1642, 1645, 1661, 1663, 1667, 1653, 1663, 1675, 1686, 1661, 1655, 1673, 1663, 1650, 1674, 1656, 1662, 1672, 1661, 1650, 1651, 1761, 1637, 1659, 1637, 1631, 1642, 1635, 1671, 1660, 1632, 1639, 1662, 1664, 1677, 1673, 1649, 1654, 1657, 1663, 1653, 1673, 1650, 1668, 1657, 1677, 1662, 1636, 1643, 1640, 1660, 1644, 1630, 1644, 1748, 1831, 1729, 2000, 1889, 1585, 1685, 1711, 1602, 1604, 1627, 1646, 1683, 1610, 1639, 1657, 1672, 1678, 1700, 1678, 1684, 1691, 1670, 1652, 1666, 1694, 1716, 1717, 1710, 1693, 1667, 1631, 1675, 1677, 1716, 1715, 1707, 1675, 1729, 1710, 1685, 1676, 1654, 1685, 1664, 1633, 1654, 1674, 1684, 1715, 1716, 1687, 1663, 1671, 1681, 1676, 1688, 1687, 1688, 1643, 1646, 1671, 1675, 1659, 1685, 1729, 1648, 1597, 1611, 1659, 1670, 1794, 1622, 1616, 1628, 1653, 1671],
      "WindowCenter": [782.0, 778.0, 776.0, 775.0, 775.0, 775.0, 775.0, 775.0, 774.0, 775.0, 775.0, 775.0, 776.0, 777.0, 778.0, 778.0, 778.0, 778.0, 777.0, 777.0, 776.0, 778.0, 777.0, 777.0, 781.0, 779.0, 780.0, 780.0, 779.0, 779.0, 779.0, 778.0, 777.0, 778.0, 779.0, 780.0, 780.0, 779.0, 778.0, 778.0, 777.0, 777.0, 777.0, 777.0, 778.0, 778.0, 778.0, 779.0, 779.0, 779.0, 779.0, 779.0, 779.0, 779.0, 779.0, 778.0, 778.0, 779.0, 780.0, 779.0, 779.0, 779.0, 779.0, 779.0, 779.0, 779.0, 782.0, 781.0, 780.0, 779.0, 778.0, 777.0, 777.0, 779.0, 778.0, 778.0, 778.0, 779.0, 779.0, 779.0, 779.0, 780.0, 780.0, 780.0, 780.0, 780.0, 782.0, 781.0, 781.0, 778.0, 779.0, 780.0, 779.0, 780.0, 782.0, 779.0, 779.0, 782.0, 780.0, 779.0, 778.0, 778.0, 779.0, 779.0, 779.0, 779.0, 779.0, 779.0, 780.0, 780.0, 779.0, 781.0, 781.0, 780.0, 779.0, 780.0, 781.0, 781.0, 781.0, 780.0, 780.0, 780.0, 779.0, 780.0, 780.0, 780.0, 781.0, 780.0, 781.0, 781.0, 780.0, 780.0, 779.0, 779.0, 781.0, 779.0, 780.0, 781.0, 781.0, 780.0, 780.0, 780.0, 780.0, 780.0, 780.0, 779.0, 779.0, 781.0, 784.0, 781.0, 781.0, 782.0, 782.0, 781.0, 781.0, 783.0, 782.0, 781.0, 780.0, 780.0, 781.0, 782.0, 782.0, 782.0, 782.0, 781.0, 780.0, 781.0, 781.0, 780.0, 780.0, 781.0, 781.0, 781.0, 781.0, 781.0, 781.0, 781.0, 782.0, 783.0, 782.0, 788.0, 789.0, 783.0, 784.0, 779.0, 774.0, 774.0, 774.0, 776.0, 779.0, 779.0, 780.0, 780.0, 780.0, 780.0, 780.0, 781.0, 782.0, 782.0, 782.0, 782.0, 782.0, 782.0, 782.0, 782.0, 783.0, 783.0, 783.0, 783.0, 783.0, 783.0, 781.0, 782.0, 782.0, 783.0, 783.0, 783.0, 783.0, 785.0, 786.0, 783.0, 781.0, 780.0, 781.0, 781.0, 781.0, 781.0, 781.0, 781.0, 782.0, 782.0, 781.0, 780.0, 781.0, 781.0, 781.0, 781.0, 781.0, 781.0, 781.0, 782.0, 782.0, 783.0, 782.0, 783.0, 783.0, 781.0, 781.0, 780.0, 781.0, 782.0, 782.0, 780.0, 780.0, 781.0, 782.0, 782.0],
      "WindowWidth": [1654.0, 1643.0, 1637.0, 1634.0, 1633.0, 1631.0, 1633.0, 1632.0, 1630.0, 1632.0, 1633.0, 1634.0, 1636.0, 1639.0, 1641.0, 1642.0, 1641.0, 1640.0, 1639.0, 1637.0, 1636.0, 1639.0, 1638.0, 1637.0, 1650.0, 1644.0, 1645.0, 1645.0, 1643.0, 1642.0, 1642.0, 1639.0, 1639.0, 1641.0, 1643.0, 1644.0, 1645.0, 1641.0, 1640.0, 1639.0, 1639.0, 1637.0, 1637.0, 1638.0, 1639.0, 1639.0, 1640.0, 1642.0, 1642.0, 1642.0, 1642.0, 1641.0, 1642.0, 1642.0, 1642.0, 1640.0, 1640.0, 1644.0, 1645.0, 1642.0, 1642.0, 1642.0, 1642.0, 1642.0, 1642.0, 1641.0, 1649.0, 1647.0, 1646.0, 1643.0, 1640.0, 1636.0, 1639.0, 1641.0, 1639.0, 1641.0, 1640.0, 1642.0, 1643.0, 1642.0, 1643.0, 1645.0, 1645.0, 1644.0, 1646.0, 1645.0, 1649.0, 1648.0, 1646.0, 1641.0, 1643.0, 1644.0, 1642.0, 1646.0, 1649.0, 1642.0, 1644.0, 1650.0, 1645.0, 1642.0, 1639.0, 1640.0, 1642.0, 1642.0, 1643.0, 1643.0, 1642.0, 1642.0, 1644.0, 1644.0, 1642.0, 1648.0, 1646.0, 1644.0, 1644.0, 1645.0, 1647.0, 1647.0, 1647.0, 1646.0, 1646.0, 1645.0, 1643.0, 1646.0, 1644.0, 1645.0, 1647.0, 1645.0, 1648.0, 1648.0, 1646.0, 1645.0, 1642.0, 1643.0, 1647.0, 1643.0, 1644.0, 1648.0, 1647.0, 1646.0, 1646.0, 1646.0, 1645.0, 1646.0, 1644.0, 1642.0, 1643.0, 1648.0, 1654.0, 1649.0, 1650.0, 1649.0, 1650.0, 1648.0, 1648.0, 1654.0, 1650.0, 1646.0, 1646.0, 1645.0, 1648.0, 1649.0, 1650.0, 1650.0, 1650.0, 1647.0, 1646.0, 1648.0, 1648.0, 1646.0, 1647.0, 1649.0, 1649.0, 1647.0, 1648.0, 1649.0, 1648.0, 1648.0, 1651.0, 1652.0, 1651.0, 1666.0, 1670.0, 1656.0, 1659.0, 1644.0, 1633.0, 1632.0, 1633.0, 1638.0, 1645.0, 1644.0, 1648.0, 1647.0, 1646.0, 1646.0, 1648.0, 1649.0, 1651.0, 1653.0, 1653.0, 1653.0, 1652.0, 1652.0, 1652.0, 1652.0, 1655.0, 1654.0, 1655.0, 1655.0, 1655.0, 1654.0, 1651.0, 1654.0, 1653.0, 1655.0, 1654.0, 1655.0, 1654.0, 1659.0, 1662.0, 1654.0, 1651.0, 1648.0, 1650.0, 1651.0, 1649.0, 1650.0, 1650.0, 1650.0, 1652.0, 1654.0, 1651.0, 1648.0, 1650.0, 1651.0, 1650.0, 1649.0, 1650.0, 1650.0, 1651.0, 1652.0, 1654.0, 1654.0, 1653.0, 1656.0, 1656.0, 1651.0, 1649.0, 1647.0, 1649.0, 1653.0, 1653.0, 1647.0, 1647.0, 1650.0, 1653.0, 1653.0]
    },
    "slices": {}
  }
}