{
  "AcquisitionMatrixPE": 68,
  "AcquisitionNumber": 1,
  "AcquisitionTime": "11:41:34.227500",
  "BandwidthPerPixelPhaseEncode": 31.289,
  "BaseResolution": 68,
  "CoilString": "C:HEA;HEP",
  "ConversionSoftware": "dcm2niix",
  "ConversionSoftwareVersion": "v1.0.20190902",
  "DerivedVendorReportedEchoSpacing": 0.000470002,
  "DeviceSerialNumber": "35450",
  "DwellTime": 3e-06,
  "EchoTime": 0.023,
  "EffectiveEchoSpacing": 0.000470002,
  "FlipAngle": 76,
  "ImageOrientationPatientDICOM": [0.999781, 0.00237076, 0.0208078, -1.18211e-08, 0.993572, -0.113203],
  "ImageType": [
    "ORIGINAL",
    "PRIMARY",
    "M",
    "ND",
    "MOSAIC"
],
  "ImagingFrequency": 123.219,
  "InPlanePhaseEncodingDirectionDICOM": "COL",
  "InstitutionAddress": "Univeristy_Ave._197_Newark_North_East_US_07102-1814",
  "InstitutionName": "RUBIC",
  "InstitutionalDepartmentName": "Department",
  "MRAcquisitionType": "2D",
  "MagneticFieldStrength": 3,
  "Manufacturer": "Siemens",
  "ManufacturersModelName": "TrioTim",
  "Modality": "MR",
  "PartialFourier": 1,
  "PatientPosition": "HFS",
  "PercentPhaseFOV": 100,
  "PhaseEncodingDirection": "j-",
  "PhaseEncodingSteps": 68,
  "PhaseResolution": 1,
  "PixelBandwidth": 2451,
  "ProcedureStepDescription": "Krekelberg_David",
  "ProtocolName": "ep2d_bold_RestEPI_3",
  "PulseSequenceDetails": "%SiemensSeq%_ep2d_bold",
  "ReceiveCoilName": "HeadMatrix",
  "ReconMatrixPE": 68,
  "RepetitionTime": 2,
  "SAR": 0.176398,
  "ScanOptions": "FS",
  "ScanningSequence": "EP",
  "SequenceName": "_epfid2d1_68",
  "SequenceVariant": "SK",
  "SeriesDescription": "ep2d_bold_RestEPI_3",
  "SeriesNumber": 10,
  "ShimSetting": [1950, -618, -7561, 948, -26, -118, -633, -176],
  "SliceThickness": 2.5,
  "SliceTiming": [1.9525, 1.8975, 1.84, 1.785, 1.73, 1.675, 1.6175, 1.5625, 1.5075, 1.45, 1.395, 1.34, 1.2825, 1.2275, 1.1725, 1.115, 1.06, 1.005, 0.95, 0.8925, 0.8375, 0.7825, 0.725, 0.67, 0.615, 0.5575, 0.5025, 0.4475, 0.39, 0.335, 0.28, 0.225, 0.1675, 0.1125, 0.0575, 0],
  "SoftwareVersions": "syngo_MR_B19",
  "SpacingBetweenSlices": 3,
  "StationName": "MRC35450",
  "TaskName": "rest",
  "TotalReadoutTime": 0.0314901,
  "TxRefAmp": 332.161,
  "dcmmeta_affine": [
    [-2.9993419647216797, -3.546322346892339e-08, 0.06282725930213928, 102.91205596923828],
    [-0.007112282328307629, 2.98071551322937, -0.3395351469516754, -68.44629669189453],
    [0.06242339313030243, 0.33960962295532227, 2.9800620079040527, -76.3277816772461],
    [0.0, 0.0, 0.0, 1.0]
],
  "dcmmeta_reorient_transform": [
    [0.0, -1.0, 0.0, 67.0],
    [1.0, 0.0, 0.0, 0.0],
    [0.0, 0.0, 1.0, 0.0],
    [0.0, 0.0, 0.0, 1.0]
],
  "dcmmeta_shape": [68, 68, 36, 240],
  "dcmmeta_slice_dim": 2,
  "dcmmeta_version": 0.6,
  "global": {
    "const": {
      "AcquisitionMatrix": [68, 0, 0, 68],
      "AngioFlag": "N",
      "BitsAllocated": 16,
      "BitsStored": 12,
      "Columns": 408,
      "EchoNumbers": 1,
      "EchoTime": 23.0,
      "EchoTrainLength": 1,
      "FlipAngle": 76.0,
      "HighBit": 11,
      "ImageOrientationPatient": [0.99978068347422, 0.002370760821, 0.02080779769603, -1.1821075e-08, 0.99357185654589, -0.1132032061382],
      "ImagePositionPatient": [-612.80019235261, -639.19238460564, -6.4522781608621],
      "ImageType": [
        "ORIGINAL",
        "PRIMARY",
        "M",
        "ND",
        "MOSAIC"
],
      "ImagedNucleus": "1H",
      "ImagingFrequency": 123.218556,
      "InPlanePhaseEncodingDirection": "COL",
      "MRAcquisitionType": "2D",
      "MagneticFieldStrength": 3.0,
      "Manufacturer": "SIEMENS",
      "ManufacturerModelName": "TrioTim",
      "Modality": "MR",
      "NumberOfAverages": 1.0,
      "NumberOfPhaseEncodingSteps": 68,
      "PercentPhaseFieldOfView": 100.0,
      "PercentSampling": 100.0,
      "PerformedProcedureStepStartTime": "103205.531000",
      "PhotometricInterpretation": "MONOCHROME2",
      "PixelBandwidth": 2451.0,
      "PixelRepresentation": 0,
      "PixelSpacing": [3.0, 3.0],
      "ProtocolName": "ep2d_bold_RestEPI_3",
      "RepetitionTime": 2000.0,
      "Rows": 408,
      "SAR": 0.17639822604466,
      "SamplesPerPixel": 1,
      "ScanOptions": "FS",
      "ScanningSequence": "EP",
      "SequenceName": "*epfid2d1_68",
      "SequenceVariant": "SK",
      "SeriesDescription": "ep2d_bold_RestEPI_3",
      "SeriesNumber": 10,
      "SeriesTime": "114222.921000",
      "SliceLocation": -65.91863472182,
      "SliceThickness": 2.5,
      "SmallestImagePixelValue": 0,
      "SoftwareVersions": "syngo MR B19",
      "SpacingBetweenSlices": 3.0000000422906,
      "SpecificCharacterSet": "ISO_IR 100",
      "StudyID": "1",
      "StudyTime": "103205.406000",
      "TransmitCoilName": "Body",
      "VariableFlipAngleFlag": "N",
      "WindowCenterWidthExplanation": "Algo1",
      "dBdt": 0.0},
    "slices": {}
  },
  "time": {
    "samples": {
      "AcquisitionNumber": [1, 2, 3, 4, 5, 6, 7, 8, 9, 10, 11, 12, 13, 14, 15, 16, 17, 18, 19, 20, 21, 22, 23, 24, 25, 26, 27, 28, 29, 30, 31, 32, 33, 34, 35, 36, 37, 38, 39, 40, 41, 42, 43, 44, 45, 46, 47, 48, 49, 50, 51, 52, 53, 54, 55, 56, 57, 58, 59, 60, 61, 62, 63, 64, 65, 66, 67, 68, 69, 70, 71, 72, 73, 74, 75, 76, 77, 78, 79, 80, 81, 82, 83, 84, 85, 86, 87, 88, 89, 90, 91, 92, 93, 94, 95, 96, 97, 98, 99, 100, 101, 102, 103, 104, 105, 106, 107, 108, 109, 110, 111, 112, 113, 114, 115, 116, 117, 118, 119, 120, 121, 122, 123, 124, 125, 126, 127, 128, 129, 130, 131, 132, 133, 134, 135, 136, 137, 138, 139, 140, 141, 142, 143, 144, 145, 146, 147, 148, 149, 150, 151, 152, 153, 154, 155, 156, 157, 158, 159, 160, 161, 162, 163, 164, 165, 166, 167, 168, 169, 170, 171, 172, 173, 174, 175, 176, 177, 178, 179, 180, 181, 182, 183, 184, 185, 186, 187, 188, 189, 190, 191, 192, 193, 194, 195, 196, 197, 198, 199, 200, 201, 202, 203, 204, 205, 206, 207, 208, 209, 210, 211, 212, 213, 214, 215, 216, 217, 218, 219, 220, 221, 222, 223, 224, 225, 226, 227, 228, 229, 230, 231, 232, 233, 234, 235, 236, 237, 238, 239, 240],
      "AcquisitionTime": ["114134.227500", "114136.235000", "114138.242500", "114140.252500", "114142.260000", "114144.267500", "114146.275000", "114148.285000", "114150.292500", "114152.300000", "114154.307500", "114156.315000", "114158.325000", "114200.332500", "114202.340000", "114204.347500", "114206.355000", "114208.365000", "114210.372500", "114212.380000", "114214.387500", "114216.397500", "114218.405000", "114220.412500", "114222.420000", "114224.427500", "114226.437500", "114228.445000", "114230.452500", "114232.460000", "114234.467500", "114236.477500", "114238.485000", "114240.492500", "114242.500000", "114244.507500", "114246.517500", "114248.525000", "114250.532500", "114252.540000", "114254.550000", "114256.557500", "114258.565000", "114300.572500", "114302.580000", "114304.590000", "114306.597500", "114308.605000", "114310.612500", "114312.620000", "114314.630000", "114316.637500", "114318.645000", "114320.652500", "114322.662500", "114324.670000", "114326.677500", "114328.685000", "114330.692500", "114332.702500", "114334.710000", "114336.717500", "114338.725000", "114340.732500", "114342.742500", "114344.750000", "114346.757500", "114348.765000", "114350.775000", "114352.782500", "114354.790000", "114356.797500", "114358.805000", "114400.815000", "114402.822500", "114404.830000", "114406.837500", "114408.845000", "114410.855000", "114412.862500", "114414.870000", "114416.877500", "114418.885000", "114420.895000", "114422.902500", "114424.910000", "114426.917500", "114428.927500", "114430.935000", "114432.942500", "114434.950000", "114436.957500", "114438.967500", "114440.975000", "114442.982500", "114444.990000", "114446.997500", "114449.007500", "114451.015000", "114453.022500", "114455.030000", "114457.040000", "114459.047500", "114501.055000", "114503.062500", "114505.070000", "114507.080000", "114509.087500", "114511.095000", "114513.102500", "114515.110000", "114517.120000", "114519.127500", "114521.135000", "114523.142500", "114525.152500", "114527.160000", "114529.167500", "114531.175000", "114533.182500", "114535.192500", "114537.200000", "114539.207500", "114541.215000", "114543.222500", "114545.232500", "114547.240000", "114549.247500", "114551.255000", "114553.262500", "114555.272500", "114557.280000", "114559.287500", "114601.295000", "114603.305000", "114605.312500", "114607.320000", "114609.327500", "114611.335000", "114613.345000", "114615.352500", "114617.360000", "114619.367500", "114621.375000", "114623.385000", "114625.392500", "114627.400000", "114629.407500", "114631.417500", "114633.425000", "114635.432500", "114637.440000", "114639.447500", "114641.457500", "114643.465000", "114645.472500", "114647.480000", "114649.487500", "114651.497500", "114653.505000", "114655.512500", "114657.520000", "114659.530000", "114701.537500", "114703.545000", "114705.552500", "114707.560000", "114709.570000", "114711.577500", "114713.585000", "114715.592500", "114717.600000", "114719.610000", "114721.617500", "114723.625000", "114725.632500", "114727.640000", "114729.650000", "114731.657500", "114733.665000", "114735.672500", "114737.682500", "114739.690000", "114741.697500", "114743.705000", "114745.712500", "114747.722500", "114749.730000", "114751.737500", "114753.745000", "114755.752500", "114757.762500", "114759.770000", "114801.777500", "114803.785000", "114805.795000", "114807.802500", "114809.810000", "114811.817500", "114813.825000", "114815.835000", "114817.842500", "114819.850000", "114821.857500", "114823.865000", "114825.875000", "114827.882500", "114829.890000", "114831.897500", "114833.907500", "114835.915000", "114837.922500", "114839.930000", "114841.937500", "114843.947500", "114845.955000", "114847.962500", "114849.970000", "114851.977500", "114853.987500", "114855.995000", "114858.002500", "114900.010000", "114902.017500", "114904.027500", "114906.035000", "114908.042500", "114910.050000", "114912.060000", "114914.067500", "114916.075000", "114918.082500", "114920.090000", "114922.100000", "114924.107500", "114926.115000", "114928.122500", "114930.130000", "114932.140000", "114934.147500"],
      "ContentTime": ["114222.921000", "114222.921000", "114222.937000", "114222.937000", "114222.937000", "114222.937000", "114222.937000", "114222.937000", "114222.937000", "114222.937000", "114222.953000", "114222.953000", "114222.953000", "114222.953000", "114222.953000", "114222.968000", "114222.968000", "114222.968000", "114222.968000", "114222.968000", "114222.968000", "114222.968000", "114222.968000", "114222.984000", "114302.921000", "114302.921000", "114302.921000", "114302.921000", "114302.921000", "114302.937000", "114302.937000", "114302.937000", "114302.937000", "114302.937000", "114302.937000", "114302.937000", "114302.937000", "114302.953000", "114302.953000", "114302.953000", "114302.953000", "114302.953000", "114302.953000", "114302.953000", "114342.921000", "114342.921000", "114342.921000", "114342.921000", "114342.937000", "114342.937000", "114342.937000", "114342.937000", "114342.937000", "114342.937000", "114342.937000", "114342.937000", "114342.953000", "114342.953000", "114342.953000", "114342.953000", "114342.953000", "114342.953000", "114342.953000", "114342.968000", "114422.921000", "114422.921000", "114422.921000", "114422.921000", "114422.937000", "114422.937000", "114422.937000", "114422.937000", "114422.937000", "114422.937000", "114422.937000", "114422.953000", "114422.953000", "114422.953000", "114422.953000", "114422.953000", "114422.953000", "114422.953000", "114422.968000", "114422.968000", "114502.921000", "114502.921000", "114502.921000", "114502.921000", "114502.937000", "114502.937000", "114502.937000", "114502.937000", "114502.937000", "114502.937000", "114502.937000", "114502.953000", "114502.953000", "114502.953000", "114502.953000", "114502.953000", "114502.953000", "114502.968000", "114502.968000", "114502.968000", "114542.921000", "114542.921000", "114542.921000", "114542.921000", "114542.937000", "114542.937000", "114542.937000", "114542.937000", "114542.937000", "114542.937000", "114542.937000", "114542.937000", "114542.953000", "114542.953000", "114542.953000", "114542.953000", "114542.953000", "114542.953000", "114542.953000", "114542.968000", "114622.921000", "114622.921000", "114622.921000", "114622.921000", "114622.937000", "114622.937000", "114622.937000", "114622.937000", "114622.937000", "114622.937000", "114622.953000", "114622.953000", "114622.953000", "114622.953000", "114622.953000", "114622.953000", "114622.953000", "114622.953000", "114622.968000", "114622.968000", "114702.921000", "114702.921000", "114702.921000", "114702.921000", "114702.937000", "114702.937000", "114702.937000", "114702.937000", "114702.937000", "114702.937000", "114702.937000", "114702.937000", "114702.953000", "114702.953000", "114702.953000", "114702.953000", "114702.953000", "114702.953000", "114702.953000", "114702.968000", "114742.921000", "114742.921000", "114742.921000", "114742.921000", "114742.937000", "114742.937000", "114742.937000", "114742.937000", "114742.937000", "114742.937000", "114742.937000", "114742.937000", "114742.953000", "114742.953000", "114742.953000", "114742.953000", "114742.953000", "114742.953000", "114742.968000", "114742.968000", "114822.921000", "114822.921000", "114822.921000", "114822.921000", "114822.937000", "114822.937000", "114822.937000", "114822.937000", "114822.937000", "114822.937000", "114822.937000", "114822.937000", "114822.953000", "114822.953000", "114822.953000", "114822.953000", "114822.953000", "114822.953000", "114822.953000", "114822.968000", "114902.921000", "114902.921000", "114902.921000", "114902.921000", "114902.937000", "114902.937000", "114902.937000", "114902.937000", "114902.937000", "114902.937000", "114902.937000", "114902.937000", "114902.953000", "114902.953000", "114902.953000", "114902.953000", "114902.953000", "114902.953000", "114902.953000", "114902.953000", "114933.968000", "114933.968000", "114933.968000", "114933.968000", "114933.984000", "114933.984000", "114933.984000", "114933.984000", "114933.984000", "114933.984000", "114933.984000", "114934.000000", "114934.000000", "114934.000000", "114934.000000", "114934.000000"],
      "InstanceCreationTime": ["114222.921000", "114222.921000", "114222.937000", "114222.937000", "114222.937000", "114222.937000", "114222.937000", "114222.937000", "114222.937000", "114222.937000", "114222.953000", "114222.953000", "114222.953000", "114222.953000", "114222.953000", "114222.968000", "114222.968000", "114222.968000", "114222.968000", "114222.968000", "114222.968000", "114222.968000", "114222.968000", "114222.984000", "114302.921000", "114302.921000", "114302.921000", "114302.921000", "114302.921000", "114302.937000", "114302.937000", "114302.937000", "114302.937000", "114302.937000", "114302.937000", "114302.937000", "114302.937000", "114302.953000", "114302.953000", "114302.953000", "114302.953000", "114302.953000", "114302.953000", "114302.953000", "114342.921000", "114342.921000", "114342.921000", "114342.921000", "114342.937000", "114342.937000", "114342.937000", "114342.937000", "114342.937000", "114342.937000", "114342.937000", "114342.937000", "114342.953000", "114342.953000", "114342.953000", "114342.953000", "114342.953000", "114342.953000", "114342.953000", "114342.968000", "114422.921000", "114422.921000", "114422.921000", "114422.921000", "114422.937000", "114422.937000", "114422.937000", "114422.937000", "114422.937000", "114422.937000", "114422.937000", "114422.953000", "114422.953000", "114422.953000", "114422.953000", "114422.953000", "114422.953000", "114422.953000", "114422.968000", "114422.968000", "114502.921000", "114502.921000", "114502.921000", "114502.921000", "114502.937000", "114502.937000", "114502.937000", "114502.937000", "114502.937000", "114502.937000", "114502.937000", "114502.953000", "114502.953000", "114502.953000", "114502.953000", "114502.953000", "114502.953000", "114502.968000", "114502.968000", "114502.968000", "114542.921000", "114542.921000", "114542.921000", "114542.921000", "114542.937000", "114542.937000", "114542.937000", "114542.937000", "114542.937000", "114542.937000", "114542.937000", "114542.937000", "114542.953000", "114542.953000", "114542.953000", "114542.953000", "114542.953000", "114542.953000", "114542.953000", "114542.968000", "114622.921000", "114622.921000", "114622.921000", "114622.921000", "114622.937000", "114622.937000", "114622.937000", "114622.937000", "114622.937000", "114622.937000", "114622.953000", "114622.953000", "114622.953000", "114622.953000", "114622.953000", "114622.953000", "114622.953000", "114622.953000", "114622.968000", "114622.968000", "114702.921000", "114702.921000", "114702.921000", "114702.921000", "114702.937000", "114702.937000", "114702.937000", "114702.937000", "114702.937000", "114702.937000", "114702.937000", "114702.937000", "114702.953000", "114702.953000", "114702.953000", "114702.953000", "114702.953000", "114702.953000", "114702.953000", "114702.968000", "114742.921000", "114742.921000", "114742.921000", "114742.921000", "114742.937000", "114742.937000", "114742.937000", "114742.937000", "114742.937000", "114742.937000", "114742.937000", "114742.937000", "114742.953000", "114742.953000", "114742.953000", "114742.953000", "114742.953000", "114742.953000", "114742.968000", "114742.968000", "114822.921000", "114822.921000", "114822.921000", "114822.921000", "114822.937000", "114822.937000", "114822.937000", "114822.937000", "114822.937000", "114822.937000", "114822.937000", "114822.937000", "114822.953000", "114822.953000", "114822.953000", "114822.953000", "114822.953000", "114822.953000", "114822.953000", "114822.968000", "114902.921000", "114902.921000", "114902.921000", "114902.921000", "114902.937000", "114902.937000", "114902.937000", "114902.937000", "114902.937000", "114902.937000", "114902.937000", "114902.937000", "114902.953000", "114902.953000", "114902.953000", "114902.953000", "114902.953000", "114902.953000", "114902.953000", "114902.953000", "114933.968000", "114933.968000", "114933.968000", "114933.968000", "114933.984000", "114933.984000", "114933.984000", "114933.984000", "114933.984000", "114933.984000", "114933.984000", "114934.000000", "114934.000000", "114934.000000", "114934.000000", "114934.000000"],
      "InstanceNumber": [1, 2, 3, 4, 5, 6, 7, 8, 9, 10, 11, 12, 13, 14, 15, 16, 17, 18, 19, 20, 21, 22, 23, 24, 25, 26, 27, 28, 29, 30, 31, 32, 33, 34, 35, 36, 37, 38, 39, 40, 41, 42, 43, 44, 45, 46, 47, 48, 49, 50, 51, 52, 53, 54, 55, 56, 57, 58, 59, 60, 61, 62, 63, 64, 65, 66, 67, 68, 69, 70, 71, 72, 73, 74, 75, 76, 77, 78, 79, 80, 81, 82, 83, 84, 85, 86, 87, 88, 89, 90, 91, 92, 93, 94, 95, 96, 97, 98, 99, 100, 101, 102, 103, 104, 105, 106, 107, 108, 109, 110, 111, 112, 113, 114, 115, 116, 117, 118, 119, 120, 121, 122, 123, 124, 125, 126, 127, 128, 129, 130, 131, 132, 133, 134, 135, 136, 137, 138, 139, 140, 141, 142, 143, 144, 145, 146, 147, 148, 149, 150, 151, 152, 153, 154, 155, 156, 157, 158, 159, 160, 161, 162, 163, 164, 165, 166, 167, 168, 169, 170, 171, 172, 173, 174, 175, 176, 177, 178, 179, 180, 181, 182, 183, 184, 185, 186, 187, 188, 189, 190, 191, 192, 193, 194, 195, 196, 197, 198, 199, 200, 201, 202, 203, 204, 205, 206, 207, 208, 209, 210, 211, 212, 213, 214, 215, 216, 217, 218, 219, 220, 221, 222, 223, 224, 225, 226, 227, 228, 229, 230, 231, 232, 233, 234, 235, 236, 237, 238, 239, 240],
      "LargestImagePixelValue": [1761, 1701, 1641, 1668, 1705, 1674, 1702, 1676, 1626, 1647, 1713, 1641, 1577, 1591, 1570, 1643, 1643, 1617, 1620, 1758, 1661, 1616, 1943, 1578, 1573, 1584, 1588, 1576, 1583, 1597, 1585, 1599, 1600, 1606, 1615, 1611, 1756, 1712, 1677, 1673, 1674, 1659, 1686, 1670, 1657, 1687, 1629, 1646, 1671, 1666, 1639, 1664, 1640, 1668, 1643, 1672, 1631, 1661, 1674, 1663, 1682, 1682, 1676, 1672, 1667, 1679, 1680, 1636, 1668, 1682, 1699, 1701, 1673, 1651, 1637, 1660, 1680, 1650, 1611, 1643, 1663, 1691, 1688, 1636, 1656, 1662, 1635, 1682, 1659, 1657, 1693, 1692, 1701, 1668, 1644, 1639, 1635, 1646, 1629, 1644, 1648, 1624, 1637, 1630, 1642, 1653, 1618, 1627, 1627, 1611, 1634, 1667, 1659, 1618, 1627, 1649, 1636, 1616, 1652, 1672, 1628, 1658, 1619, 1652, 1650, 1650, 1670, 1638, 1639, 1667, 1653, 1649, 1625, 1649, 1683, 1664, 1676, 1623, 1678, 1610, 1618, 1632, 1629, 1639, 1629, 1654, 1668, 1655, 1653, 1653, 1638, 1638, 1653, 1668, 1690, 1678, 1634, 1628, 1631, 1647, 1664, 1645, 1651, 1677, 1643, 1648, 1674, 1667, 1640, 1664, 1676, 1668, 1679, 1621, 1653, 1658, 1641, 1662, 1690, 1647, 1683, 1701, 1659, 1670, 1674, 1662, 1671, 1686, 1634, 1712, 1679, 1666, 1711, 1665, 1663, 1668, 1642, 1666, 1651, 1687, 1689, 1667, 1640, 1635, 1644, 1612, 1656, 1698, 1662, 1712, 1636, 1715, 1700, 1692, 1687, 1679, 1709, 1678, 1673, 1704, 1684, 1686, 1680, 1635, 1657, 1637, 1700, 1678, 1647, 1840, 1645, 1801, 1714, 1702, 1776, 1645, 1613, 1591, 1611, 1698],
      "WindowCenter": [774.0, 770.0, 770.0, 769.0, 769.0, 769.0, 769.0, 769.0, 769.0, 770.0, 773.0, 771.0, 769.0, 768.0, 767.0, 767.0, 769.0, 769.0, 772.0, 776.0, 773.0, 770.0, 770.0, 764.0, 762.0, 763.0, 764.0, 765.0, 767.0, 768.0, 769.0, 770.0, 770.0, 771.0, 771.0, 771.0, 776.0, 775.0, 773.0, 772.0, 772.0, 771.0, 771.0, 771.0, 772.0, 771.0, 771.0, 772.0, 773.0, 772.0, 773.0, 772.0, 773.0, 772.0, 772.0, 772.0, 771.0, 772.0, 771.0, 771.0, 772.0, 773.0, 773.0, 773.0, 773.0, 773.0, 773.0, 772.0, 773.0, 773.0, 773.0, 773.0, 773.0, 773.0, 773.0, 773.0, 774.0, 773.0, 773.0, 773.0, 773.0, 773.0, 772.0, 773.0, 773.0, 773.0, 773.0, 773.0, 773.0, 774.0, 773.0, 774.0, 774.0, 773.0, 774.0, 773.0, 773.0, 773.0, 773.0, 775.0, 774.0, 774.0, 773.0, 772.0, 775.0, 776.0, 774.0, 773.0, 772.0, 773.0, 773.0, 774.0, 774.0, 774.0, 773.0, 773.0, 773.0, 773.0, 774.0, 774.0, 774.0, 774.0, 774.0, 775.0, 774.0, 774.0, 773.0, 774.0, 775.0, 774.0, 773.0, 773.0, 772.0, 774.0, 773.0, 774.0, 773.0, 775.0, 776.0, 774.0, 774.0, 773.0, 773.0, 774.0, 773.0, 774.0, 774.0, 775.0, 775.0, 774.0, 774.0, 774.0, 774.0, 775.0, 775.0, 776.0, 775.0, 774.0, 772.0, 773.0, 774.0, 774.0, 776.0, 775.0, 776.0, 775.0, 775.0, 776.0, 774.0, 774.0, 774.0, 775.0, 775.0, 774.0, 775.0, 775.0, 775.0, 776.0, 774.0, 774.0, 775.0, 776.0, 775.0, 775.0, 774.0, 776.0, 776.0, 775.0, 776.0, 776.0, 776.0, 777.0, 776.0, 776.0, 775.0, 776.0, 776.0, 775.0, 776.0, 776.0, 776.0, 776.0, 774.0, 775.0, 775.0, 775.0, 775.0, 775.0, 775.0, 775.0, 775.0, 776.0, 776.0, 776.0, 775.0, 776.0, 777.0, 776.0, 776.0, 776.0, 777.0, 777.0, 776.0, 775.0, 775.0, 775.0, 776.0, 775.0, 777.0, 783.0, 779.0, 782.0, 777.0, 772.0, 770.0, 768.0, 768.0, 770.0, 772.0, 774.0],
      "WindowWidth": [1638.0, 1628.0, 1625.0, 1624.0, 1623.0, 1623.0, 1625.0, 1624.0, 1623.0, 1625.0, 1635.0, 1628.0, 1623.0, 1620.0, 1618.0, 1618.0, 1623.0, 1624.0, 1630.0, 1642.0, 1632.0, 1625.0, 1624.0, 1610.0, 1606.0, 1607.0, 1609.0, 1613.0, 1617.0, 1620.0, 1623.0, 1625.0, 1626.0, 1628.0, 1627.0, 1629.0, 1641.0, 1636.0, 1633.0, 1630.0, 1629.0, 1627.0, 1628.0, 1628.0, 1631.0, 1627.0, 1628.0, 1629.0, 1631.0, 1629.0, 1631.0, 1630.0, 1631.0, 1629.0, 1631.0, 1629.0, 1629.0, 1629.0, 1628.0, 1628.0, 1630.0, 1632.0, 1632.0, 1632.0, 1632.0, 1632.0, 1631.0, 1629.0, 1631.0, 1632.0, 1633.0, 1633.0, 1631.0, 1633.0, 1631.0, 1633.0, 1634.0, 1632.0, 1633.0, 1633.0, 1632.0, 1633.0, 1630.0, 1633.0, 1633.0, 1632.0, 1632.0, 1633.0, 1633.0, 1634.0, 1633.0, 1636.0, 1633.0, 1633.0, 1635.0, 1632.0, 1633.0, 1631.0, 1632.0, 1637.0, 1634.0, 1634.0, 1632.0, 1630.0, 1636.0, 1638.0, 1636.0, 1631.0, 1629.0, 1632.0, 1631.0, 1634.0, 1634.0, 1634.0, 1631.0, 1632.0, 1632.0, 1631.0, 1634.0, 1633.0, 1633.0, 1633.0, 1633.0, 1636.0, 1634.0, 1634.0, 1632.0, 1634.0, 1636.0, 1633.0, 1633.0, 1631.0, 1630.0, 1633.0, 1632.0, 1634.0, 1633.0, 1638.0, 1638.0, 1633.0, 1633.0, 1631.0, 1632.0, 1633.0, 1633.0, 1636.0, 1634.0, 1636.0, 1637.0, 1634.0, 1634.0, 1635.0, 1634.0, 1636.0, 1637.0, 1638.0, 1636.0, 1633.0, 1630.0, 1633.0, 1634.0, 1636.0, 1638.0, 1638.0, 1638.0, 1636.0, 1638.0, 1638.0, 1634.0, 1636.0, 1635.0, 1637.0, 1638.0, 1635.0, 1638.0, 1637.0, 1637.0, 1639.0, 1636.0, 1636.0, 1638.0, 1638.0, 1638.0, 1636.0, 1635.0, 1640.0, 1639.0, 1637.0, 1639.0, 1639.0, 1641.0, 1641.0, 1639.0, 1639.0, 1638.0, 1640.0, 1640.0, 1638.0, 1639.0, 1640.0, 1640.0, 1639.0, 1635.0, 1637.0, 1636.0, 1637.0, 1637.0, 1637.0, 1639.0, 1638.0, 1637.0, 1640.0, 1640.0, 1639.0, 1638.0, 1641.0, 1642.0, 1639.0, 1640.0, 1641.0, 1642.0, 1643.0, 1639.0, 1637.0, 1637.0, 1638.0, 1639.0, 1639.0, 1642.0, 1660.0, 1649.0, 1654.0, 1641.0, 1630.0, 1623.0, 1619.0, 1621.0, 1624.0, 1629.0, 1635.0]
    },
    "slices": {}
  }
}