{
  "AcquisitionMatrixPE": 68,
  "AcquisitionNumber": 1,
  "AcquisitionTime": "11:11:14.605000",
  "BandwidthPerPixelPhaseEncode": 31.289,
  "BaseResolution": 68,
  "CoilString": "C:HEA;HEP",
  "ConversionSoftware": "dcm2niix",
  "ConversionSoftwareVersion": "v1.0.20190902",
  "DerivedVendorReportedEchoSpacing": 0.000470002,
  "DeviceSerialNumber": "35450",
  "DwellTime": 3e-06,
  "EchoTime": 0.023,
  "EffectiveEchoSpacing": 0.000470002,
  "FlipAngle": 76,
  "ImageOrientationPatientDICOM": [0.999781, 0.00237076, 0.0208078, -1.18211e-08, 0.993572, -0.113203],
  "ImageType": [
    "ORIGINAL",
    "PRIMARY",
    "M",
    "ND",
    "MOSAIC"
],
  "ImagingFrequency": 123.218,
  "InPlanePhaseEncodingDirectionDICOM": "COL",
  "InstitutionAddress": "Univeristy_Ave._197_Newark_North_East_US_07102-1814",
  "InstitutionName": "RUBIC",
  "InstitutionalDepartmentName": "Department",
  "MRAcquisitionType": "2D",
  "MagneticFieldStrength": 3,
  "Manufacturer": "Siemens",
  "ManufacturersModelName": "TrioTim",
  "Modality": "MR",
  "PartialFourier": 1,
  "PatientPosition": "HFS",
  "PercentPhaseFOV": 100,
  "PhaseEncodingDirection": "j-",
  "PhaseEncodingSteps": 68,
  "PhaseResolution": 1,
  "PixelBandwidth": 2451,
  "ProcedureStepDescription": "Krekelberg_David",
  "ProtocolName": "ep2d_bold_RestEPI_1",
  "PulseSequenceDetails": "%SiemensSeq%_ep2d_bold",
  "ReceiveCoilName": "HeadMatrix",
  "ReconMatrixPE": 68,
  "RepetitionTime": 2,
  "SAR": 0.176398,
  "ScanOptions": "FS",
  "ScanningSequence": "EP",
  "SequenceName": "_epfid2d1_68",
  "SequenceVariant": "SK",
  "SeriesDescription": "ep2d_bold_RestEPI_1",
  "SeriesNumber": 7,
  "ShimSetting": [1950, -618, -7561, 948, -26, -118, -633, -176],
  "SliceThickness": 2.5,
  "SliceTiming": [1.95, 1.895, 1.84, 1.7825, 1.7275, 1.6725, 1.615, 1.56, 1.505, 1.45, 1.3925, 1.3375, 1.2825, 1.225, 1.17, 1.115, 1.0575, 1.0025, 0.9475, 0.89, 0.835, 0.78, 0.725, 0.6675, 0.6125, 0.5575, 0.5, 0.445, 0.39, 0.3325, 0.2775, 0.2225, 0.1675, 0.11, 0.055, 0],
  "SoftwareVersions": "syngo_MR_B19",
  "SpacingBetweenSlices": 3,
  "StationName": "MRC35450",
  "TaskName": "rest",
  "TotalReadoutTime": 0.0314901,
  "TxRefAmp": 332.161,
  "dcmmeta_affine": [
    [-2.9993419647216797, -3.546322346892339e-08, 0.06282725930213928, 102.91205596923828],
    [-0.007112282328307629, 2.98071551322937, -0.3395351469516754, -68.44629669189453],
    [0.06242339313030243, 0.33960962295532227, 2.9800620079040527, -76.3277816772461],
    [0.0, 0.0, 0.0, 1.0]
],
  "dcmmeta_reorient_transform": [
    [0.0, -1.0, 0.0, 67.0],
    [1.0, 0.0, 0.0, 0.0],
    [0.0, 0.0, 1.0, 0.0],
    [0.0, 0.0, 0.0, 1.0]
],
  "dcmmeta_shape": [68, 68, 36, 240],
  "dcmmeta_slice_dim": 2,
  "dcmmeta_version": 0.6,
  "global": {
    "const": {
      "AcquisitionMatrix": [68, 0, 0, 68],
      "AngioFlag": "N",
      "BitsAllocated": 16,
      "BitsStored": 12,
      "Columns": 408,
      "EchoNumbers": 1,
      "EchoTime": 23.0,
      "EchoTrainLength": 1,
      "FlipAngle": 76.0,
      "HighBit": 11,
      "ImageOrientationPatient": [0.99978068347422, 0.002370760821, 0.02080779769603, -1.1821075e-08, 0.99357185654589, -0.1132032061382],
      "ImagePositionPatient": [-612.80019235261, -639.19238460564, -6.4522781608621],
      "ImageType": [
        "ORIGINAL",
        "PRIMARY",
        "M",
        "ND",
        "MOSAIC"
],
      "ImagedNucleus": "1H",
      "ImagingFrequency": 123.218492,
      "InPlanePhaseEncodingDirection": "COL",
      "MRAcquisitionType": "2D",
      "MagneticFieldStrength": 3.0,
      "Manufacturer": "SIEMENS",
      "ManufacturerModelName": "TrioTim",
      "Modality": "MR",
      "NumberOfAverages": 1.0,
      "NumberOfPhaseEncodingSteps": 68,
      "PercentPhaseFieldOfView": 100.0,
      "PercentSampling": 100.0,
      "PerformedProcedureStepStartTime": "103205.531000",
      "PhotometricInterpretation": "MONOCHROME2",
      "PixelBandwidth": 2451.0,
      "PixelRepresentation": 0,
      "PixelSpacing": [3.0, 3.0],
      "ProtocolName": "ep2d_bold_RestEPI_1",
      "RepetitionTime": 2000.0,
      "Rows": 408,
      "SAR": 0.17639822604466,
      "SamplesPerPixel": 1,
      "ScanOptions": "FS",
      "ScanningSequence": "EP",
      "SequenceName": "*epfid2d1_68",
      "SequenceVariant": "SK",
      "SeriesDescription": "ep2d_bold_RestEPI_1",
      "SeriesNumber": 7,
      "SeriesTime": "111202.921000",
      "SliceLocation": -65.91863472182,
      "SliceThickness": 2.5,
      "SmallestImagePixelValue": 0,
      "SoftwareVersions": "syngo MR B19",
      "SpacingBetweenSlices": 3.0000000422906,
      "SpecificCharacterSet": "ISO_IR 100",
      "StudyID": "1",
      "StudyTime": "103205.406000",
      "TransmitCoilName": "Body",
      "VariableFlipAngleFlag": "N",
      "WindowCenterWidthExplanation": "Algo1",
      "dBdt": 0.0},
    "slices": {}
  },
  "time": {
    "samples": {
      "AcquisitionNumber": [1, 2, 3, 4, 5, 6, 7, 8, 9, 10, 11, 12, 13, 14, 15, 16, 17, 18, 19, 20, 21, 22, 23, 24, 25, 26, 27, 28, 29, 30, 31, 32, 33, 34, 35, 36, 37, 38, 39, 40, 41, 42, 43, 44, 45, 46, 47, 48, 49, 50, 51, 52, 53, 54, 55, 56, 57, 58, 59, 60, 61, 62, 63, 64, 65, 66, 67, 68, 69, 70, 71, 72, 73, 74, 75, 76, 77, 78, 79, 80, 81, 82, 83, 84, 85, 86, 87, 88, 89, 90, 91, 92, 93, 94, 95, 96, 97, 98, 99, 100, 101, 102, 103, 104, 105, 106, 107, 108, 109, 110, 111, 112, 113, 114, 115, 116, 117, 118, 119, 120, 121, 122, 123, 124, 125, 126, 127, 128, 129, 130, 131, 132, 133, 134, 135, 136, 137, 138, 139, 140, 141, 142, 143, 144, 145, 146, 147, 148, 149, 150, 151, 152, 153, 154, 155, 156, 157, 158, 159, 160, 161, 162, 163, 164, 165, 166, 167, 168, 169, 170, 171, 172, 173, 174, 175, 176, 177, 178, 179, 180, 181, 182, 183, 184, 185, 186, 187, 188, 189, 190, 191, 192, 193, 194, 195, 196, 197, 198, 199, 200, 201, 202, 203, 204, 205, 206, 207, 208, 209, 210, 211, 212, 213, 214, 215, 216, 217, 218, 219, 220, 221, 222, 223, 224, 225, 226, 227, 228, 229, 230, 231, 232, 233, 234, 235, 236, 237, 238, 239, 240],
      "AcquisitionTime": ["111114.605000", "111116.615000", "111118.622500", "111120.630000", "111122.637500", "111124.645000", "111126.655000", "111128.662500", "111130.670000", "111132.677500", "111134.685000", "111136.695000", "111138.702500", "111140.710000", "111142.717500", "111144.725000", "111146.735000", "111148.742500", "111150.750000", "111152.757500", "111154.767500", "111156.775000", "111158.782500", "111200.790000", "111202.797500", "111204.807500", "111206.815000", "111208.822500", "111210.830000", "111212.837500", "111214.847500", "111216.855000", "111218.862500", "111220.870000", "111222.880000", "111224.887500", "111226.895000", "111228.902500", "111230.910000", "111232.920000", "111234.927500", "111236.935000", "111238.942500", "111240.950000", "111242.960000", "111244.967500", "111246.975000", "111248.982500", "111250.992500", "111253.000000", "111255.007500", "111257.015000", "111259.022500", "111301.032500", "111303.040000", "111305.047500", "111307.055000", "111309.062500", "111311.072500", "111313.080000", "111315.087500", "111317.095000", "111319.102500", "111321.112500", "111323.120000", "111325.127500", "111327.135000", "111329.145000", "111331.152500", "111333.160000", "111335.167500", "111337.175000", "111339.185000", "111341.192500", "111343.200000", "111345.207500", "111347.215000", "111349.225000", "111351.232500", "111353.240000", "111355.247500", "111357.257500", "111359.265000", "111401.272500", "111403.280000", "111405.287500", "111407.297500", "111409.305000", "111411.312500", "111413.320000", "111415.327500", "111417.337500", "111419.345000", "111421.352500", "111423.360000", "111425.370000", "111427.377500", "111429.385000", "111431.392500", "111433.400000", "111435.410000", "111437.417500", "111439.425000", "111441.432500", "111443.440000", "111445.450000", "111447.457500", "111449.465000", "111451.472500", "111453.480000", "111455.490000", "111457.497500", "111459.505000", "111501.512500", "111503.522500", "111505.530000", "111507.537500", "111509.545000", "111511.552500", "111513.562500", "111515.570000", "111517.577500", "111519.585000", "111521.592500", "111523.602500", "111525.610000", "111527.617500", "111529.625000", "111531.635000", "111533.642500", "111535.650000", "111537.657500", "111539.665000", "111541.675000", "111543.682500", "111545.690000", "111547.697500", "111549.705000", "111551.715000", "111553.722500", "111555.730000", "111557.737500", "111559.747500", "111601.755000", "111603.762500", "111605.770000", "111607.777500", "111609.787500", "111611.795000", "111613.802500", "111615.810000", "111617.817500", "111619.827500", "111621.835000", "111623.842500", "111625.850000", "111627.860000", "111629.867500", "111631.875000", "111633.882500", "111635.890000", "111637.900000", "111639.907500", "111641.915000", "111643.922500", "111645.930000", "111647.940000", "111649.947500", "111651.955000", "111653.962500", "111655.970000", "111657.980000", "111659.987500", "111701.995000", "111704.002500", "111706.012500", "111708.020000", "111710.027500", "111712.035000", "111714.042500", "111716.052500", "111718.060000", "111720.067500", "111722.075000", "111724.082500", "111726.092500", "111728.100000", "111730.107500", "111732.115000", "111734.125000", "111736.132500", "111738.140000", "111740.147500", "111742.155000", "111744.165000", "111746.172500", "111748.180000", "111750.187500", "111752.195000", "111754.205000", "111756.212500", "111758.220000", "111800.227500", "111802.237500", "111804.245000", "111806.252500", "111808.260000", "111810.267500", "111812.277500", "111814.285000", "111816.292500", "111818.300000", "111820.307500", "111822.317500", "111824.325000", "111826.332500", "111828.340000", "111830.347500", "111832.357500", "111834.365000", "111836.372500", "111838.380000", "111840.390000", "111842.397500", "111844.405000", "111846.412500", "111848.420000", "111850.430000", "111852.437500", "111854.445000", "111856.452500", "111858.460000", "111900.470000", "111902.477500", "111904.485000", "111906.492500", "111908.502500", "111910.510000", "111912.517500", "111914.525000"],
      "ContentTime": ["111202.921000", "111202.921000", "111202.937000", "111202.937000", "111202.937000", "111202.937000", "111202.937000", "111202.937000", "111202.937000", "111202.937000", "111202.953000", "111202.953000", "111202.953000", "111202.953000", "111202.953000", "111202.953000", "111202.953000", "111202.968000", "111202.968000", "111202.968000", "111202.968000", "111202.968000", "111202.968000", "111202.968000", "111242.921000", "111242.921000", "111242.921000", "111242.921000", "111242.921000", "111242.937000", "111242.937000", "111242.937000", "111242.937000", "111242.937000", "111242.937000", "111242.937000", "111242.953000", "111242.953000", "111242.953000", "111242.953000", "111242.953000", "111242.953000", "111242.953000", "111242.953000", "111322.921000", "111322.921000", "111322.921000", "111322.921000", "111322.921000", "111322.937000", "111322.937000", "111322.937000", "111322.937000", "111322.937000", "111322.937000", "111322.937000", "111322.953000", "111322.953000", "111322.953000", "111322.953000", "111322.953000", "111322.953000", "111322.953000", "111322.953000", "111342.921000", "111342.921000", "111342.921000", "111342.921000", "111342.921000", "111342.937000", "111342.937000", "111342.937000", "111342.937000", "111342.937000", "111422.921000", "111422.921000", "111422.921000", "111422.921000", "111422.921000", "111422.937000", "111422.937000", "111422.937000", "111422.937000", "111422.937000", "111422.937000", "111422.937000", "111422.953000", "111422.953000", "111422.953000", "111422.953000", "111422.953000", "111422.953000", "111422.953000", "111422.968000", "111502.921000", "111502.921000", "111502.921000", "111502.921000", "111502.937000", "111502.937000", "111502.937000", "111502.937000", "111502.937000", "111502.953000", "111502.953000", "111502.953000", "111502.953000", "111502.953000", "111502.953000", "111502.968000", "111502.968000", "111502.968000", "111502.968000", "111502.968000", "111542.921000", "111542.921000", "111542.921000", "111542.921000", "111542.921000", "111542.937000", "111542.937000", "111542.937000", "111542.937000", "111542.937000", "111542.937000", "111542.937000", "111542.953000", "111542.953000", "111542.953000", "111542.953000", "111542.953000", "111542.953000", "111542.953000", "111542.968000", "111622.921000", "111622.921000", "111622.921000", "111622.921000", "111622.921000", "111622.937000", "111622.937000", "111622.937000", "111622.937000", "111622.937000", "111622.937000", "111622.937000", "111622.953000", "111622.953000", "111622.953000", "111622.953000", "111622.953000", "111622.953000", "111622.953000", "111622.953000", "111702.921000", "111702.921000", "111702.921000", "111702.921000", "111702.921000", "111702.937000", "111702.937000", "111702.937000", "111702.937000", "111702.937000", "111702.937000", "111702.937000", "111702.953000", "111702.953000", "111702.953000", "111702.968000", "111702.968000", "111702.968000", "111702.968000", "111702.968000", "111742.921000", "111742.921000", "111742.921000", "111742.921000", "111742.937000", "111742.937000", "111742.937000", "111742.937000", "111742.937000", "111742.937000", "111742.937000", "111742.953000", "111742.953000", "111742.953000", "111742.953000", "111742.953000", "111742.953000", "111742.953000", "111742.968000", "111742.968000", "111822.921000", "111822.921000", "111822.921000", "111822.921000", "111822.921000", "111822.937000", "111822.937000", "111822.937000", "111822.937000", "111822.937000", "111822.937000", "111822.937000", "111822.953000", "111822.953000", "111822.953000", "111822.953000", "111822.953000", "111822.953000", "111822.953000", "111822.953000", "111902.921000", "111902.921000", "111902.921000", "111902.921000", "111902.937000", "111902.937000", "111902.937000", "111902.937000", "111902.937000", "111902.937000", "111902.937000", "111902.937000", "111902.953000", "111902.953000", "111902.953000", "111902.953000", "111902.953000", "111902.953000", "111902.953000", "111902.968000", "111914.140000", "111914.140000", "111914.140000", "111914.140000", "111914.140000", "111914.140000"],
      "InstanceCreationTime": ["111202.921000", "111202.921000", "111202.937000", "111202.937000", "111202.937000", "111202.937000", "111202.937000", "111202.937000", "111202.937000", "111202.937000", "111202.953000", "111202.953000", "111202.953000", "111202.953000", "111202.953000", "111202.953000", "111202.953000", "111202.968000", "111202.968000", "111202.968000", "111202.968000", "111202.968000", "111202.968000", "111202.968000", "111242.921000", "111242.921000", "111242.921000", "111242.921000", "111242.921000", "111242.937000", "111242.937000", "111242.937000", "111242.937000", "111242.937000", "111242.937000", "111242.937000", "111242.953000", "111242.953000", "111242.953000", "111242.953000", "111242.953000", "111242.953000", "111242.953000", "111242.953000", "111322.921000", "111322.921000", "111322.921000", "111322.921000", "111322.921000", "111322.937000", "111322.937000", "111322.937000", "111322.937000", "111322.937000", "111322.937000", "111322.937000", "111322.953000", "111322.953000", "111322.953000", "111322.953000", "111322.953000", "111322.953000", "111322.953000", "111322.953000", "111342.921000", "111342.921000", "111342.921000", "111342.921000", "111342.921000", "111342.937000", "111342.937000", "111342.937000", "111342.937000", "111342.937000", "111422.921000", "111422.921000", "111422.921000", "111422.921000", "111422.921000", "111422.937000", "111422.937000", "111422.937000", "111422.937000", "111422.937000", "111422.937000", "111422.937000", "111422.953000", "111422.953000", "111422.953000", "111422.953000", "111422.953000", "111422.953000", "111422.953000", "111422.968000", "111502.921000", "111502.921000", "111502.921000", "111502.921000", "111502.937000", "111502.937000", "111502.937000", "111502.937000", "111502.937000", "111502.953000", "111502.953000", "111502.953000", "111502.953000", "111502.953000", "111502.953000", "111502.968000", "111502.968000", "111502.968000", "111502.968000", "111502.968000", "111542.921000", "111542.921000", "111542.921000", "111542.921000", "111542.921000", "111542.937000", "111542.937000", "111542.937000", "111542.937000", "111542.937000", "111542.937000", "111542.937000", "111542.953000", "111542.953000", "111542.953000", "111542.953000", "111542.953000", "111542.953000", "111542.953000", "111542.968000", "111622.921000", "111622.921000", "111622.921000", "111622.921000", "111622.921000", "111622.937000", "111622.937000", "111622.937000", "111622.937000", "111622.937000", "111622.937000", "111622.937000", "111622.953000", "111622.953000", "111622.953000", "111622.953000", "111622.953000", "111622.953000", "111622.953000", "111622.953000", "111702.921000", "111702.921000", "111702.921000", "111702.921000", "111702.921000", "111702.937000", "111702.937000", "111702.937000", "111702.937000", "111702.937000", "111702.937000", "111702.937000", "111702.953000", "111702.953000", "111702.953000", "111702.968000", "111702.968000", "111702.968000", "111702.968000", "111702.968000", "111742.921000", "111742.921000", "111742.921000", "111742.921000", "111742.937000", "111742.937000", "111742.937000", "111742.937000", "111742.937000", "111742.937000", "111742.937000", "111742.953000", "111742.953000", "111742.953000", "111742.953000", "111742.953000", "111742.953000", "111742.953000", "111742.968000", "111742.968000", "111822.921000", "111822.921000", "111822.921000", "111822.921000", "111822.921000", "111822.937000", "111822.937000", "111822.937000", "111822.937000", "111822.937000", "111822.937000", "111822.937000", "111822.953000", "111822.953000", "111822.953000", "111822.953000", "111822.953000", "111822.953000", "111822.953000", "111822.953000", "111902.921000", "111902.921000", "111902.921000", "111902.921000", "111902.937000", "111902.937000", "111902.937000", "111902.937000", "111902.937000", "111902.937000", "111902.937000", "111902.937000", "111902.953000", "111902.953000", "111902.953000", "111902.953000", "111902.953000", "111902.953000", "111902.953000", "111902.968000", "111914.140000", "111914.140000", "111914.140000", "111914.140000", "111914.140000", "111914.140000"],
      "InstanceNumber": [1, 2, 3, 4, 5, 6, 7, 8, 9, 10, 11, 12, 13, 14, 15, 16, 17, 18, 19, 20, 21, 22, 23, 24, 25, 26, 27, 28, 29, 30, 31, 32, 33, 34, 35, 36, 37, 38, 39, 40, 41, 42, 43, 44, 45, 46, 47, 48, 49, 50, 51, 52, 53, 54, 55, 56, 57, 58, 59, 60, 61, 62, 63, 64, 65, 66, 67, 68, 69, 70, 71, 72, 73, 74, 75, 76, 77, 78, 79, 80, 81, 82, 83, 84, 85, 86, 87, 88, 89, 90, 91, 92, 93, 94, 95, 96, 97, 98, 99, 100, 101, 102, 103, 104, 105, 106, 107, 108, 109, 110, 111, 112, 113, 114, 115, 116, 117, 118, 119, 120, 121, 122, 123, 124, 125, 126, 127, 128, 129, 130, 131, 132, 133, 134, 135, 136, 137, 138, 139, 140, 141, 142, 143, 144, 145, 146, 147, 148, 149, 150, 151, 152, 153, 154, 155, 156, 157, 158, 159, 160, 161, 162, 163, 164, 165, 166, 167, 168, 169, 170, 171, 172, 173, 174, 175, 176, 177, 178, 179, 180, 181, 182, 183, 184, 185, 186, 187, 188, 189, 190, 191, 192, 193, 194, 195, 196, 197, 198, 199, 200, 201, 202, 203, 204, 205, 206, 207, 208, 209, 210, 211, 212, 213, 214, 215, 216, 217, 218, 219, 220, 221, 222, 223, 224, 225, 226, 227, 228, 229, 230, 231, 232, 233, 234, 235, 236, 237, 238, 239, 240],
      "LargestImagePixelValue": [1763, 1710, 1646, 1614, 1618, 1579, 1651, 1613, 1685, 1706, 1670, 1691, 1616, 1676, 1660, 1619, 1652, 1656, 1626, 1658, 1740, 1656, 1678, 1682, 1669, 1686, 1665, 1750, 1699, 1676, 1841, 1583, 1580, 1615, 1609, 1642, 1652, 1699, 1714, 1724, 1712, 1692, 1707, 1686, 1721, 1755, 1684, 1718, 1719, 1680, 1662, 1723, 1691, 1703, 1708, 1709, 1749, 1709, 1650, 1654, 1676, 1696, 1684, 1695, 1665, 1665, 1707, 1722, 1713, 1689, 1672, 1663, 1691, 1665, 1720, 1663, 1699, 1644, 1670, 1764, 1724, 1663, 1732, 1703, 1677, 1686, 1725, 1724, 1751, 1711, 1740, 1887, 1739, 1746, 1711, 1717, 1770, 1715, 1738, 1650, 1659, 1722, 1655, 1822, 1690, 1697, 1822, 1661, 1713, 1672, 1727, 1660, 1722, 1772, 1662, 1710, 1858, 1661, 1717, 1630, 1678, 1648, 1663, 1707, 1671, 1691, 1653, 1650, 1715, 2022, 1705, 1677, 1671, 1641, 1665, 1624, 1642, 1625, 1692, 1691, 1672, 1659, 1763, 1675, 1674, 1653, 1753, 1654, 1728, 1637, 1945, 1612, 1737, 1573, 1628, 1654, 1747, 1672, 1749, 1720, 1693, 1725, 1729, 1652, 1712, 1727, 1762, 1746, 1694, 1667, 1704, 1854, 1706, 1753, 1690, 1701, 1745, 1762, 1762, 1725, 1690, 1665, 1935, 1726, 1643, 1679, 1889, 1667, 1657, 1674, 1702, 1731, 1689, 1663, 1689, 1705, 1680, 1703, 1673, 1718, 1751, 1655, 1688, 1654, 1664, 1771, 1689, 1665, 1679, 1660, 1689, 1616, 1940, 1946, 1572, 1607, 1633, 1701, 1612, 1642, 1662, 1677, 1699, 1705, 1677, 1668, 1687, 1746, 1714, 1740, 1719, 1700, 1711, 1800, 1726, 1672, 1725, 1686, 1698, 1682],
      "WindowCenter": [778.0, 775.0, 775.0, 773.0, 772.0, 773.0, 772.0, 773.0, 773.0, 774.0, 773.0, 773.0, 773.0, 774.0, 773.0, 773.0, 773.0, 774.0, 773.0, 774.0, 774.0, 774.0, 775.0, 774.0, 774.0, 774.0, 777.0, 778.0, 776.0, 776.0, 774.0, 769.0, 768.0, 770.0, 771.0, 773.0, 773.0, 775.0, 776.0, 777.0, 776.0, 776.0, 775.0, 776.0, 776.0, 776.0, 775.0, 777.0, 777.0, 777.0, 777.0, 778.0, 777.0, 777.0, 777.0, 777.0, 778.0, 778.0, 777.0, 775.0, 776.0, 776.0, 777.0, 777.0, 776.0, 777.0, 776.0, 777.0, 776.0, 777.0, 777.0, 777.0, 778.0, 777.0, 782.0, 779.0, 779.0, 778.0, 777.0, 777.0, 776.0, 777.0, 778.0, 778.0, 778.0, 777.0, 779.0, 778.0, 779.0, 779.0, 779.0, 779.0, 778.0, 780.0, 780.0, 779.0, 779.0, 779.0, 779.0, 779.0, 778.0, 778.0, 778.0, 780.0, 778.0, 779.0, 780.0, 779.0, 779.0, 779.0, 780.0, 779.0, 779.0, 779.0, 779.0, 780.0, 780.0, 779.0, 779.0, 778.0, 779.0, 778.0, 779.0, 780.0, 779.0, 781.0, 780.0, 779.0, 781.0, 783.0, 780.0, 780.0, 780.0, 780.0, 780.0, 780.0, 779.0, 779.0, 780.0, 781.0, 782.0, 782.0, 782.0, 782.0, 782.0, 783.0, 783.0, 782.0, 785.0, 781.0, 779.0, 775.0, 775.0, 776.0, 777.0, 778.0, 781.0, 780.0, 782.0, 781.0, 783.0, 782.0, 781.0, 781.0, 782.0, 782.0, 783.0, 782.0, 782.0, 782.0, 782.0, 783.0, 781.0, 781.0, 781.0, 782.0, 782.0, 783.0, 783.0, 783.0, 782.0, 783.0, 783.0, 782.0, 781.0, 782.0, 783.0, 782.0, 782.0, 781.0, 782.0, 782.0, 782.0, 782.0, 782.0, 782.0, 782.0, 782.0, 782.0, 783.0, 785.0, 784.0, 783.0, 782.0, 782.0, 782.0, 780.0, 782.0, 783.0, 786.0, 784.0, 784.0, 786.0, 780.0, 775.0, 775.0, 777.0, 777.0, 779.0, 780.0, 781.0, 782.0, 782.0, 783.0, 783.0, 783.0, 784.0, 784.0, 783.0, 783.0, 783.0, 783.0, 784.0, 784.0, 784.0, 783.0, 784.0, 784.0, 784.0, 783.0],
      "WindowWidth": [1645.0, 1637.0, 1635.0, 1631.0, 1629.0, 1631.0, 1628.0, 1631.0, 1632.0, 1632.0, 1632.0, 1631.0, 1632.0, 1633.0, 1631.0, 1631.0, 1631.0, 1633.0, 1631.0, 1634.0, 1634.0, 1635.0, 1635.0, 1634.0, 1633.0, 1633.0, 1641.0, 1645.0, 1638.0, 1639.0, 1633.0, 1621.0, 1619.0, 1624.0, 1625.0, 1631.0, 1632.0, 1637.0, 1639.0, 1642.0, 1639.0, 1637.0, 1636.0, 1638.0, 1638.0, 1639.0, 1637.0, 1640.0, 1641.0, 1640.0, 1642.0, 1644.0, 1641.0, 1642.0, 1640.0, 1642.0, 1644.0, 1642.0, 1640.0, 1636.0, 1638.0, 1637.0, 1640.0, 1640.0, 1638.0, 1639.0, 1639.0, 1642.0, 1639.0, 1640.0, 1640.0, 1640.0, 1642.0, 1641.0, 1654.0, 1646.0, 1646.0, 1643.0, 1639.0, 1640.0, 1637.0, 1641.0, 1643.0, 1642.0, 1641.0, 1641.0, 1644.0, 1644.0, 1646.0, 1646.0, 1645.0, 1646.0, 1644.0, 1647.0, 1647.0, 1645.0, 1646.0, 1644.0, 1647.0, 1645.0, 1643.0, 1643.0, 1644.0, 1647.0, 1642.0, 1646.0, 1648.0, 1643.0, 1645.0, 1645.0, 1647.0, 1646.0, 1646.0, 1646.0, 1644.0, 1647.0, 1647.0, 1644.0, 1645.0, 1642.0, 1645.0, 1643.0, 1646.0, 1647.0, 1646.0, 1650.0, 1646.0, 1646.0, 1650.0, 1654.0, 1648.0, 1648.0, 1646.0, 1646.0, 1648.0, 1646.0, 1645.0, 1645.0, 1648.0, 1650.0, 1651.0, 1651.0, 1653.0, 1653.0, 1653.0, 1654.0, 1656.0, 1652.0, 1661.0, 1650.0, 1646.0, 1635.0, 1636.0, 1638.0, 1639.0, 1643.0, 1650.0, 1649.0, 1653.0, 1651.0, 1655.0, 1653.0, 1651.0, 1650.0, 1652.0, 1653.0, 1654.0, 1653.0, 1652.0, 1652.0, 1652.0, 1654.0, 1649.0, 1651.0, 1651.0, 1652.0, 1654.0, 1657.0, 1655.0, 1654.0, 1654.0, 1654.0, 1656.0, 1652.0, 1650.0, 1652.0, 1656.0, 1652.0, 1654.0, 1651.0, 1652.0, 1652.0, 1651.0, 1652.0, 1652.0, 1654.0, 1652.0, 1652.0, 1653.0, 1655.0, 1662.0, 1656.0, 1654.0, 1652.0, 1652.0, 1652.0, 1648.0, 1652.0, 1655.0, 1663.0, 1660.0, 1656.0, 1662.0, 1647.0, 1634.0, 1635.0, 1640.0, 1642.0, 1646.0, 1648.0, 1650.0, 1655.0, 1654.0, 1655.0, 1655.0, 1654.0, 1657.0, 1658.0, 1656.0, 1656.0, 1654.0, 1655.0, 1658.0, 1659.0, 1657.0, 1656.0, 1659.0, 1658.0, 1658.0, 1656.0]
    },
    "slices": {}
  }
}