{
  "aor": 0.0029296108949416347,
  "aqi": 0.013806170661478599,
  "bids_meta": {
    "AcquisitionMatrixPE": 68,
    "AcquisitionNumber": 1,
    "AcquisitionTime": "11:53:29.227500",
    "BandwidthPerPixelPhaseEncode": 31.289,
    "BaseResolution": 68,
    "CogAtlasID": "TODO",
    "CoilString": "C:HEA;HEP",
    "ConversionSoftware": "dcm2niix",
    "ConversionSoftwareVersion": "v1.0.20190902",
    "DerivedVendorReportedEchoSpacing": 0.000470002,
    "DeviceSerialNumber": "35450",
    "DwellTime": 3e-06,
    "EchoTime": 0.023,
    "EffectiveEchoSpacing": 0.000470002,
    "FlipAngle": 76,
    "ImageOrientationPatientDICOM": [
      1,
      0,
      0,
      0,
      0.988228,
      -0.152986
    ],
    "ImageType": [
      "ORIGINAL",
      "PRIMARY",
      "M",
      "ND",
      "MOSAIC"
    ],
    "ImagingFrequency": 123.218,
    "InPlanePhaseEncodingDirectionDICOM": "COL",
    "InstitutionAddress": "Univeristy_Ave._197_Newark_North_East_US_07102-1814",
    "InstitutionName": "RUBIC",
    "InstitutionalDepartmentName": "Department",
    "MRAcquisitionType": "2D",
    "MagneticFieldStrength": 3,
    "Manufacturer": "Siemens",
    "ManufacturersModelName": "TrioTim",
    "Modality": "MR",
    "PartialFourier": 1,
    "PatientPosition": "HFS",
    "PercentPhaseFOV": 100,
    "PhaseEncodingDirection": "j-",
    "PhaseEncodingSteps": 68,
    "PhaseResolution": 1,
    "PixelBandwidth": 2451,
    "ProcedureStepDescription": "Krekelberg_David",
    "ProtocolName": "ep2d_bold_CardGameEPI_2",
    "PulseSequenceDetails": "%SiemensSeq%_ep2d_bold",
    "ReceiveCoilName": "HeadMatrix",
    "ReconMatrixPE": 68,
    "RepetitionTime": 2,
    "SAR": 0.229956,
    "ScanOptions": "FS",
    "ScanningSequence": "EP",
    "SequenceName": "_epfid2d1_68",
    "SequenceVariant": "SK",
    "SeriesDescription": "ep2d_bold_CardGameEPI_2",
    "SeriesNumber": 7,
    "ShimSetting": [
      1963,
      -666,
      -7514,
      631,
      37,
      -44,
      -413,
      -11
    ],
    "SliceThickness": 2.5,
    "SliceTiming": [
      1.9525,
      1.8975,
      1.8425,
      1.785,
      1.73,
      1.675,
      1.6175,
      1.5625,
      1.5075,
      1.45,
      1.395,
      1.34,
      1.2825,
      1.2275,
      1.1725,
      1.1175,
      1.06,
      1.005,
      0.95,
      0.8925,
      0.8375,
      0.7825,
      0.725,
      0.67,
      0.615,
      0.56,
      0.5025,
      0.4475,
      0.3925,
      0.335,
      0.28,
      0.225,
      0.1675,
      0.1125,
      0.0575,
      0
    ],
    "SoftwareVersions": "syngo_MR_B19",
    "SpacingBetweenSlices": 3,
    "StationName": "MRC35450",
    "TaskName": "cardgame",
    "TotalReadoutTime": 0.0314901,
    "TxRefAmp": 478.846,
    "dataset": "<unset>",
    "dcmmeta_affine": [
      [
        -3.0,
        0.0,
        0.0,
        102.0
      ],
      [
        0.0,
        2.9646852016448975,
        -0.4589575231075287,
        -65.39607238769531
      ],
      [
        0.0,
        0.4589575231075287,
        2.9646852016448975,
        -51.43436813354492
      ],
      [
        0.0,
        0.0,
        0.0,
        1.0
      ]
    ],
    "dcmmeta_reorient_transform": [
      [
        0.0,
        -1.0,
        0.0,
        67.0
      ],
      [
        1.0,
        0.0,
        0.0,
        0.0
      ],
      [
        0.0,
        0.0,
        1.0,
        0.0
      ],
      [
        0.0,
        0.0,
        0.0,
        1.0
      ]
    ],
    "dcmmeta_shape": [
      68,
      68,
      36,
      258
    ],
    "dcmmeta_slice_dim": 2,
    "dcmmeta_version": 0.6,
    "global": {
      "const": {
        "AcquisitionMatrix": [
          68,
          0,
          0,
          68
        ],
        "AngioFlag": "N",
        "BitsAllocated": 16,
        "BitsStored": 12,
        "Columns": 408,
        "EchoNumbers": 1,
        "EchoTime": 23.0,
        "EchoTrainLength": 1,
        "FlipAngle": 76.0,
        "HighBit": 11,
        "ImageOrientationPatient": [
          1.0,
          0.0,
          0.0,
          0.0,
          0.9882283809914,
          -0.1529858392241
        ],
        "ImagePositionPatient": [
          -612.0,
          -637.23430676439,
          57.338564836851
        ],
        "ImageType": [
          "ORIGINAL",
          "PRIMARY",
          "M",
          "ND",
          "MOSAIC"
        ],
        "ImagedNucleus": "1H",
        "ImagingFrequency": 123.218402,
        "InPlanePhaseEncodingDirection": "COL",
        "MRAcquisitionType": "2D",
        "MagneticFieldStrength": 3.0,
        "Manufacturer": "SIEMENS",
        "ManufacturerModelName": "TrioTim",
        "Modality": "MR",
        "NumberOfAverages": 1.0,
        "NumberOfPhaseEncodingSteps": 68,
        "PercentPhaseFieldOfView": 100.0,
        "PercentSampling": 100.0,
        "PerformedProcedureStepStartTime": "112056.812000",
        "PhotometricInterpretation": "MONOCHROME2",
        "PixelBandwidth": 2451.0,
        "PixelRepresentation": 0,
        "PixelSpacing": [
          3.0,
          3.0
        ],
        "ProtocolName": "ep2d_bold_CardGameEPI_2",
        "RepetitionTime": 2000.0,
        "Rows": 408,
        "SAR": 0.22995611986476,
        "SamplesPerPixel": 1,
        "ScanOptions": "FS",
        "ScanningSequence": "EP",
        "SequenceName": "*epfid2d1_68",
        "SequenceVariant": "SK",
        "SeriesDescription": "ep2d_bold_CardGameEPI_2",
        "SeriesNumber": 7,
        "SeriesTime": "115419.843000",
        "SliceLocation": -40.82422810566,
        "SliceThickness": 2.5,
        "SmallestImagePixelValue": 0,
        "SoftwareVersions": "syngo MR B19",
        "SpacingBetweenSlices": 3.0000000229381,
        "SpecificCharacterSet": "ISO_IR 100",
        "StudyID": "1",
        "StudyTime": "112056.703000",
        "TransmitCoilName": "Body",
        "VariableFlipAngleFlag": "N",
        "WindowCenterWidthExplanation": "Algo1",
        "dBdt": 0.0
      },
      "slices": {}
    },
    "modality": "bold",
    "run_id": 2,
    "subject_id": "236",
    "task_id": "cardgame",
    "time": {
      "samples": {
        "AcquisitionNumber": [
          1,
          2,
          3,
          4,
          5,
          6,
          7,
          8,
          9,
          10,
          11,
          12,
          13,
          14,
          15,
          16,
          17,
          18,
          19,
          20,
          21,
          22,
          23,
          24,
          25,
          26,
          27,
          28,
          29,
          30,
          31,
          32,
          33,
          34,
          35,
          36,
          37,
          38,
          39,
          40,
          41,
          42,
          43,
          44,
          45,
          46,
          47,
          48,
          49,
          50,
          51,
          52,
          53,
          54,
          55,
          56,
          57,
          58,
          59,
          60,
          61,
          62,
          63,
          64,
          65,
          66,
          67,
          68,
          69,
          70,
          71,
          72,
          73,
          74,
          75,
          76,
          77,
          78,
          79,
          80,
          81,
          82,
          83,
          84,
          85,
          86,
          87,
          88,
          89,
          90,
          91,
          92,
          93,
          94,
          95,
          96,
          97,
          98,
          99,
          100,
          101,
          102,
          103,
          104,
          105,
          106,
          107,
          108,
          109,
          110,
          111,
          112,
          113,
          114,
          115,
          116,
          117,
          118,
          119,
          120,
          121,
          122,
          123,
          124,
          125,
          126,
          127,
          128,
          129,
          130,
          131,
          132,
          133,
          134,
          135,
          136,
          137,
          138,
          139,
          140,
          141,
          142,
          143,
          144,
          145,
          146,
          147,
          148,
          149,
          150,
          151,
          152,
          153,
          154,
          155,
          156,
          157,
          158,
          159,
          160,
          161,
          162,
          163,
          164,
          165,
          166,
          167,
          168,
          169,
          170,
          171,
          172,
          173,
          174,
          175,
          176,
          177,
          178,
          179,
          180,
          181,
          182,
          183,
          184,
          185,
          186,
          187,
          188,
          189,
          190,
          191,
          192,
          193,
          194,
          195,
          196,
          197,
          198,
          199,
          200,
          201,
          202,
          203,
          204,
          205,
          206,
          207,
          208,
          209,
          210,
          211,
          212,
          213,
          214,
          215,
          216,
          217,
          218,
          219,
          220,
          221,
          222,
          223,
          224,
          225,
          226,
          227,
          228,
          229,
          230,
          231,
          232,
          233,
          234,
          235,
          236,
          237,
          238,
          239,
          240,
          241,
          242,
          243,
          244,
          245,
          246,
          247,
          248,
          249,
          250,
          251,
          252,
          253,
          254,
          255,
          256,
          257,
          258
        ],
        "AcquisitionTime": [
          "115329.227500",
          "115331.235000",
          "115333.245000",
          "115335.252500",
          "115337.260000",
          "115339.267500",
          "115341.275000",
          "115343.285000",
          "115345.292500",
          "115347.300000",
          "115349.307500",
          "115351.315000",
          "115353.325000",
          "115355.332500",
          "115357.340000",
          "115359.347500",
          "115401.357500",
          "115403.365000",
          "115405.372500",
          "115407.380000",
          "115409.387500",
          "115411.397500",
          "115413.405000",
          "115415.412500",
          "115417.420000",
          "115419.427500",
          "115421.437500",
          "115423.445000",
          "115425.452500",
          "115427.460000",
          "115429.470000",
          "115431.477500",
          "115433.485000",
          "115435.492500",
          "115437.500000",
          "115439.510000",
          "115441.517500",
          "115443.525000",
          "115445.532500",
          "115447.540000",
          "115449.550000",
          "115451.557500",
          "115453.565000",
          "115455.572500",
          "115457.582500",
          "115459.590000",
          "115501.597500",
          "115503.605000",
          "115505.612500",
          "115507.622500",
          "115509.630000",
          "115511.637500",
          "115513.645000",
          "115515.652500",
          "115517.662500",
          "115519.670000",
          "115521.677500",
          "115523.685000",
          "115525.692500",
          "115527.702500",
          "115529.710000",
          "115531.717500",
          "115533.725000",
          "115535.735000",
          "115537.742500",
          "115539.750000",
          "115541.757500",
          "115543.765000",
          "115545.775000",
          "115547.782500",
          "115549.790000",
          "115551.797500",
          "115553.805000",
          "115555.815000",
          "115557.822500",
          "115559.830000",
          "115601.837500",
          "115603.847500",
          "115605.855000",
          "115607.862500",
          "115609.870000",
          "115611.877500",
          "115613.887500",
          "115615.895000",
          "115617.902500",
          "115619.910000",
          "115621.917500",
          "115623.927500",
          "115625.935000",
          "115627.942500",
          "115629.950000",
          "115631.960000",
          "115633.967500",
          "115635.975000",
          "115637.982500",
          "115639.990000",
          "115642.000000",
          "115644.007500",
          "115646.015000",
          "115648.022500",
          "115650.030000",
          "115652.040000",
          "115654.047500",
          "115656.055000",
          "115658.062500",
          "115700.072500",
          "115702.080000",
          "115704.087500",
          "115706.095000",
          "115708.102500",
          "115710.112500",
          "115712.120000",
          "115714.127500",
          "115716.135000",
          "115718.142500",
          "115720.152500",
          "115722.160000",
          "115724.167500",
          "115726.175000",
          "115728.182500",
          "115730.192500",
          "115732.200000",
          "115734.207500",
          "115736.215000",
          "115738.225000",
          "115740.232500",
          "115742.240000",
          "115744.247500",
          "115746.255000",
          "115748.265000",
          "115750.272500",
          "115752.280000",
          "115754.287500",
          "115756.295000",
          "115758.305000",
          "115800.312500",
          "115802.320000",
          "115804.327500",
          "115806.337500",
          "115808.345000",
          "115810.352500",
          "115812.360000",
          "115814.367500",
          "115816.377500",
          "115818.385000",
          "115820.392500",
          "115822.400000",
          "115824.407500",
          "115826.417500",
          "115828.425000",
          "115830.432500",
          "115832.440000",
          "115834.450000",
          "115836.457500",
          "115838.465000",
          "115840.472500",
          "115842.480000",
          "115844.490000",
          "115846.497500",
          "115848.505000",
          "115850.512500",
          "115852.520000",
          "115854.530000",
          "115856.537500",
          "115858.545000",
          "115900.552500",
          "115902.560000",
          "115904.570000",
          "115906.577500",
          "115908.585000",
          "115910.592500",
          "115912.602500",
          "115914.610000",
          "115916.617500",
          "115918.625000",
          "115920.632500",
          "115922.642500",
          "115924.650000",
          "115926.657500",
          "115928.665000",
          "115930.672500",
          "115932.682500",
          "115934.690000",
          "115936.697500",
          "115938.705000",
          "115940.715000",
          "115942.722500",
          "115944.730000",
          "115946.737500",
          "115948.745000",
          "115950.755000",
          "115952.762500",
          "115954.770000",
          "115956.777500",
          "115958.785000",
          "120000.795000",
          "120002.802500",
          "120004.810000",
          "120006.817500",
          "120008.827500",
          "120010.835000",
          "120012.842500",
          "120014.850000",
          "120016.857500",
          "120018.867500",
          "120020.875000",
          "120022.882500",
          "120024.890000",
          "120026.897500",
          "120028.907500",
          "120030.915000",
          "120032.922500",
          "120034.930000",
          "120036.937500",
          "120038.947500",
          "120040.955000",
          "120042.962500",
          "120044.970000",
          "120046.980000",
          "120048.987500",
          "120050.995000",
          "120053.002500",
          "120055.010000",
          "120057.020000",
          "120059.027500",
          "120101.035000",
          "120103.042500",
          "120105.050000",
          "120107.060000",
          "120109.067500",
          "120111.075000",
          "120113.082500",
          "120115.092500",
          "120117.100000",
          "120119.107500",
          "120121.115000",
          "120123.122500",
          "120125.132500",
          "120127.140000",
          "120129.147500",
          "120131.155000",
          "120133.162500",
          "120135.172500",
          "120137.180000",
          "120139.187500",
          "120141.195000",
          "120143.205000",
          "120145.212500",
          "120147.220000",
          "120149.227500",
          "120151.235000",
          "120153.245000",
          "120155.252500",
          "120157.260000",
          "120159.267500",
          "120201.275000",
          "120203.285000",
          "120205.292500"
        ],
        "ContentTime": [
          "115419.843000",
          "115419.859000",
          "115419.859000",
          "115419.859000",
          "115419.859000",
          "115419.859000",
          "115419.859000",
          "115419.859000",
          "115419.859000",
          "115419.875000",
          "115419.875000",
          "115419.875000",
          "115419.875000",
          "115419.875000",
          "115419.875000",
          "115419.875000",
          "115419.890000",
          "115419.890000",
          "115419.890000",
          "115419.890000",
          "115419.890000",
          "115419.906000",
          "115419.906000",
          "115419.906000",
          "115419.906000",
          "115459.828000",
          "115459.828000",
          "115459.843000",
          "115459.843000",
          "115459.843000",
          "115459.843000",
          "115459.843000",
          "115459.843000",
          "115459.843000",
          "115459.859000",
          "115459.859000",
          "115459.859000",
          "115459.859000",
          "115459.859000",
          "115459.859000",
          "115459.859000",
          "115459.859000",
          "115459.875000",
          "115459.875000",
          "115459.875000",
          "115539.828000",
          "115539.843000",
          "115539.843000",
          "115539.843000",
          "115539.843000",
          "115539.843000",
          "115539.843000",
          "115539.843000",
          "115539.843000",
          "115539.859000",
          "115539.859000",
          "115539.859000",
          "115539.859000",
          "115539.859000",
          "115539.859000",
          "115539.859000",
          "115539.875000",
          "115539.875000",
          "115539.875000",
          "115539.875000",
          "115619.828000",
          "115619.843000",
          "115619.843000",
          "115619.843000",
          "115619.843000",
          "115619.843000",
          "115619.843000",
          "115619.843000",
          "115619.843000",
          "115619.859000",
          "115619.859000",
          "115619.859000",
          "115619.859000",
          "115619.859000",
          "115619.859000",
          "115619.859000",
          "115619.859000",
          "115619.875000",
          "115619.875000",
          "115619.875000",
          "115659.828000",
          "115659.828000",
          "115659.843000",
          "115659.843000",
          "115659.843000",
          "115659.843000",
          "115659.843000",
          "115659.843000",
          "115659.843000",
          "115659.859000",
          "115659.859000",
          "115659.859000",
          "115659.859000",
          "115659.859000",
          "115659.859000",
          "115659.859000",
          "115659.875000",
          "115659.875000",
          "115659.875000",
          "115659.875000",
          "115739.828000",
          "115739.828000",
          "115739.843000",
          "115739.843000",
          "115739.843000",
          "115739.843000",
          "115739.843000",
          "115739.843000",
          "115739.843000",
          "115739.859000",
          "115739.859000",
          "115739.859000",
          "115739.859000",
          "115739.859000",
          "115739.859000",
          "115739.859000",
          "115739.875000",
          "115739.875000",
          "115739.875000",
          "115739.875000",
          "115819.828000",
          "115819.843000",
          "115819.843000",
          "115819.843000",
          "115819.843000",
          "115819.843000",
          "115819.843000",
          "115819.843000",
          "115819.843000",
          "115819.859000",
          "115819.859000",
          "115819.859000",
          "115819.859000",
          "115819.859000",
          "115819.859000",
          "115819.859000",
          "115819.875000",
          "115819.875000",
          "115819.875000",
          "115819.875000",
          "115859.828000",
          "115859.828000",
          "115859.843000",
          "115859.843000",
          "115859.843000",
          "115859.843000",
          "115859.843000",
          "115859.843000",
          "115859.843000",
          "115859.859000",
          "115859.859000",
          "115859.859000",
          "115859.859000",
          "115859.859000",
          "115859.859000",
          "115859.859000",
          "115859.859000",
          "115859.875000",
          "115859.875000",
          "115859.875000",
          "115939.828000",
          "115939.828000",
          "115939.843000",
          "115939.843000",
          "115939.843000",
          "115939.843000",
          "115939.843000",
          "115939.843000",
          "115939.843000",
          "115939.859000",
          "115939.859000",
          "115939.859000",
          "115939.859000",
          "115939.859000",
          "115939.859000",
          "115939.859000",
          "115939.875000",
          "115939.875000",
          "115939.875000",
          "115939.875000",
          "120019.828000",
          "120019.828000",
          "120019.843000",
          "120019.843000",
          "120019.843000",
          "120019.843000",
          "120019.843000",
          "120019.843000",
          "120019.843000",
          "120019.843000",
          "120019.859000",
          "120019.859000",
          "120019.859000",
          "120019.859000",
          "120019.859000",
          "120019.859000",
          "120019.859000",
          "120019.875000",
          "120019.875000",
          "120019.875000",
          "120059.828000",
          "120059.828000",
          "120059.843000",
          "120059.843000",
          "120059.843000",
          "120059.843000",
          "120059.843000",
          "120059.843000",
          "120059.843000",
          "120059.859000",
          "120059.859000",
          "120059.859000",
          "120059.859000",
          "120059.859000",
          "120059.859000",
          "120059.859000",
          "120059.859000",
          "120059.875000",
          "120059.875000",
          "120059.875000",
          "120119.828000",
          "120119.828000",
          "120119.843000",
          "120119.843000",
          "120119.843000",
          "120119.843000",
          "120119.843000",
          "120119.843000",
          "120119.843000",
          "120119.859000",
          "120159.828000",
          "120159.828000",
          "120159.843000",
          "120159.843000",
          "120159.843000",
          "120159.843000",
          "120159.843000",
          "120159.843000",
          "120159.843000",
          "120159.859000",
          "120159.859000",
          "120159.859000",
          "120159.859000",
          "120159.859000",
          "120159.859000",
          "120159.859000",
          "120159.875000",
          "120159.875000",
          "120159.875000",
          "120159.875000",
          "120204.468000",
          "120204.468000",
          "120204.468000"
        ],
        "InstanceCreationTime": [
          "115419.843000",
          "115419.859000",
          "115419.859000",
          "115419.859000",
          "115419.859000",
          "115419.859000",
          "115419.859000",
          "115419.859000",
          "115419.859000",
          "115419.875000",
          "115419.875000",
          "115419.875000",
          "115419.875000",
          "115419.875000",
          "115419.875000",
          "115419.875000",
          "115419.890000",
          "115419.890000",
          "115419.890000",
          "115419.890000",
          "115419.890000",
          "115419.906000",
          "115419.906000",
          "115419.906000",
          "115419.906000",
          "115459.828000",
          "115459.828000",
          "115459.843000",
          "115459.843000",
          "115459.843000",
          "115459.843000",
          "115459.843000",
          "115459.843000",
          "115459.843000",
          "115459.859000",
          "115459.859000",
          "115459.859000",
          "115459.859000",
          "115459.859000",
          "115459.859000",
          "115459.859000",
          "115459.859000",
          "115459.875000",
          "115459.875000",
          "115459.875000",
          "115539.828000",
          "115539.843000",
          "115539.843000",
          "115539.843000",
          "115539.843000",
          "115539.843000",
          "115539.843000",
          "115539.843000",
          "115539.843000",
          "115539.859000",
          "115539.859000",
          "115539.859000",
          "115539.859000",
          "115539.859000",
          "115539.859000",
          "115539.859000",
          "115539.875000",
          "115539.875000",
          "115539.875000",
          "115539.875000",
          "115619.828000",
          "115619.843000",
          "115619.843000",
          "115619.843000",
          "115619.843000",
          "115619.843000",
          "115619.843000",
          "115619.843000",
          "115619.843000",
          "115619.859000",
          "115619.859000",
          "115619.859000",
          "115619.859000",
          "115619.859000",
          "115619.859000",
          "115619.859000",
          "115619.859000",
          "115619.875000",
          "115619.875000",
          "115619.875000",
          "115659.828000",
          "115659.828000",
          "115659.843000",
          "115659.843000",
          "115659.843000",
          "115659.843000",
          "115659.843000",
          "115659.843000",
          "115659.843000",
          "115659.859000",
          "115659.859000",
          "115659.859000",
          "115659.859000",
          "115659.859000",
          "115659.859000",
          "115659.859000",
          "115659.875000",
          "115659.875000",
          "115659.875000",
          "115659.875000",
          "115739.828000",
          "115739.828000",
          "115739.843000",
          "115739.843000",
          "115739.843000",
          "115739.843000",
          "115739.843000",
          "115739.843000",
          "115739.843000",
          "115739.859000",
          "115739.859000",
          "115739.859000",
          "115739.859000",
          "115739.859000",
          "115739.859000",
          "115739.859000",
          "115739.875000",
          "115739.875000",
          "115739.875000",
          "115739.875000",
          "115819.828000",
          "115819.843000",
          "115819.843000",
          "115819.843000",
          "115819.843000",
          "115819.843000",
          "115819.843000",
          "115819.843000",
          "115819.843000",
          "115819.859000",
          "115819.859000",
          "115819.859000",
          "115819.859000",
          "115819.859000",
          "115819.859000",
          "115819.859000",
          "115819.875000",
          "115819.875000",
          "115819.875000",
          "115819.875000",
          "115859.828000",
          "115859.828000",
          "115859.843000",
          "115859.843000",
          "115859.843000",
          "115859.843000",
          "115859.843000",
          "115859.843000",
          "115859.843000",
          "115859.859000",
          "115859.859000",
          "115859.859000",
          "115859.859000",
          "115859.859000",
          "115859.859000",
          "115859.859000",
          "115859.859000",
          "115859.875000",
          "115859.875000",
          "115859.875000",
          "115939.828000",
          "115939.828000",
          "115939.843000",
          "115939.843000",
          "115939.843000",
          "115939.843000",
          "115939.843000",
          "115939.843000",
          "115939.843000",
          "115939.859000",
          "115939.859000",
          "115939.859000",
          "115939.859000",
          "115939.859000",
          "115939.859000",
          "115939.859000",
          "115939.875000",
          "115939.875000",
          "115939.875000",
          "115939.875000",
          "120019.828000",
          "120019.828000",
          "120019.843000",
          "120019.843000",
          "120019.843000",
          "120019.843000",
          "120019.843000",
          "120019.843000",
          "120019.843000",
          "120019.843000",
          "120019.859000",
          "120019.859000",
          "120019.859000",
          "120019.859000",
          "120019.859000",
          "120019.859000",
          "120019.859000",
          "120019.875000",
          "120019.875000",
          "120019.875000",
          "120059.828000",
          "120059.828000",
          "120059.843000",
          "120059.843000",
          "120059.843000",
          "120059.843000",
          "120059.843000",
          "120059.843000",
          "120059.843000",
          "120059.859000",
          "120059.859000",
          "120059.859000",
          "120059.859000",
          "120059.859000",
          "120059.859000",
          "120059.859000",
          "120059.859000",
          "120059.875000",
          "120059.875000",
          "120059.875000",
