{
  "aor": 0.0011328793774319067,
  "aqi": 0.006441371439688716,
  "bids_meta": {
    "AcquisitionMatrixPE": 68,
    "AcquisitionNumber": 1,
    "AcquisitionTime": "12:30:1.552500",
    "BandwidthPerPixelPhaseEncode": 31.289,
    "BaseResolution": 68,
    "CogAtlasID": "TODO",
    "CoilString": "C:HEA;HEP",
    "ConversionSoftware": "dcm2niix",
    "ConversionSoftwareVersion": "v1.0.20190902",
    "DerivedVendorReportedEchoSpacing": 0.000470002,
    "DeviceSerialNumber": "35450",
    "DwellTime": 3e-06,
    "EchoTime": 0.023,
    "EffectiveEchoSpacing": 0.000470002,
    "FlipAngle": 76,
    "ImageOrientationPatientDICOM": [
      1,
      0,
      0,
      0,
      0.988228,
      -0.152986
    ],
    "ImageType": [
      "ORIGINAL",
      "PRIMARY",
      "M",
      "ND",
      "MOSAIC"
    ],
    "ImagingFrequency": 123.218,
    "InPlanePhaseEncodingDirectionDICOM": "COL",
    "InstitutionAddress": "Univeristy_Ave._197_Newark_North_East_US_07102-1814",
    "InstitutionName": "RUBIC",
    "InstitutionalDepartmentName": "Department",
    "MRAcquisitionType": "2D",
    "MagneticFieldStrength": 3,
    "Manufacturer": "Siemens",
    "ManufacturersModelName": "TrioTim",
    "Modality": "MR",
    "PartialFourier": 1,
    "PatientPosition": "HFS",
    "PercentPhaseFOV": 100,
    "PhaseEncodingDirection": "j-",
    "PhaseEncodingSteps": 68,
    "PhaseResolution": 1,
    "PixelBandwidth": 2451,
    "ProcedureStepDescription": "Krekelberg_David",
    "ProtocolName": "ep2d_bold_CardGameEPI_3",
    "PulseSequenceDetails": "%SiemensSeq%_ep2d_bold",
    "ReceiveCoilName": "HeadMatrix",
    "ReconMatrixPE": 68,
    "RepetitionTime": 2,
    "SAR": 0.229956,
    "ScanOptions": "FS",
    "ScanningSequence": "EP",
    "SequenceName": "_epfid2d1_68",
    "SequenceVariant": "SK",
    "SeriesDescription": "ep2d_bold_CardGameEPI_3",
    "SeriesNumber": 11,
    "ShimSetting": [
      1963,
      -666,
      -7514,
      631,
      37,
      -44,
      -413,
      -11
    ],
    "SliceThickness": 2.5,
    "SliceTiming": [
      1.95,
      1.895,
      1.84,
      1.785,
      1.7275,
      1.6725,
      1.6175,
      1.56,
      1.505,
      1.45,
      1.3925,
      1.3375,
      1.2825,
      1.2275,
      1.17,
      1.115,
      1.06,
      1.0025,
      0.9475,
      0.8925,
      0.835,
      0.78,
      0.725,
      0.6675,
      0.6125,
      0.5575,
      0.5025,
      0.445,
      0.39,
      0.335,
      0.2775,
      0.2225,
      0.1675,
      0.11,
      0.055,
      0
    ],
    "SoftwareVersions": "syngo_MR_B19",
    "SpacingBetweenSlices": 3,
    "StationName": "MRC35450",
    "TaskName": "cardgame",
    "TotalReadoutTime": 0.0314901,
    "TxRefAmp": 478.846,
    "dataset": "<unset>",
    "dcmmeta_affine": [
      [
        -3.0,
        0.0,
        0.0,
        102.0
      ],
      [
        0.0,
        2.9646852016448975,
        -0.4589575231075287,
        -65.39607238769531
      ],
      [
        0.0,
        0.4589575231075287,
        2.9646852016448975,
        -51.43436813354492
      ],
      [
        0.0,
        0.0,
        0.0,
        1.0
      ]
    ],
    "dcmmeta_reorient_transform": [
      [
        0.0,
        -1.0,
        0.0,
        67.0
      ],
      [
        1.0,
        0.0,
        0.0,
        0.0
      ],
      [
        0.0,
        0.0,
        1.0,
        0.0
      ],
      [
        0.0,
        0.0,
        0.0,
        1.0
      ]
    ],
    "dcmmeta_shape": [
      68,
      68,
      36,
      258
    ],
    "dcmmeta_slice_dim": 2,
    "dcmmeta_version": 0.6,
    "global": {
      "const": {
        "AcquisitionMatrix": [
          68,
          0,
          0,
          68
        ],
        "AngioFlag": "N",
        "BitsAllocated": 16,
        "BitsStored": 12,
        "Columns": 408,
        "EchoNumbers": 1,
        "EchoTime": 23.0,
        "EchoTrainLength": 1,
        "FlipAngle": 76.0,
        "HighBit": 11,
        "ImageOrientationPatient": [
          1.0,
          0.0,
          0.0,
          0.0,
          0.9882283809914,
          -0.1529858392241
        ],
        "ImagePositionPatient": [
          -612.0,
          -637.23430676439,
          57.338564836851
        ],
        "ImageType": [
          "ORIGINAL",
          "PRIMARY",
          "M",
          "ND",
          "MOSAIC"
        ],
        "ImagedNucleus": "1H",
        "ImagingFrequency": 123.218474,
        "InPlanePhaseEncodingDirection": "COL",
        "MRAcquisitionType": "2D",
        "MagneticFieldStrength": 3.0,
        "Manufacturer": "SIEMENS",
        "ManufacturerModelName": "TrioTim",
        "Modality": "MR",
        "NumberOfAverages": 1.0,
        "NumberOfPhaseEncodingSteps": 68,
        "PercentPhaseFieldOfView": 100.0,
        "PercentSampling": 100.0,
        "PerformedProcedureStepStartTime": "112056.812000",
        "PhotometricInterpretation": "MONOCHROME2",
        "PixelBandwidth": 2451.0,
        "PixelRepresentation": 0,
        "PixelSpacing": [
          3.0,
          3.0
        ],
        "ProtocolName": "ep2d_bold_CardGameEPI_3",
        "RepetitionTime": 2000.0,
        "Rows": 408,
        "SAR": 0.22995611986476,
        "SamplesPerPixel": 1,
        "ScanOptions": "FS",
        "ScanningSequence": "EP",
        "SequenceName": "*epfid2d1_68",
        "SequenceVariant": "SK",
        "SeriesDescription": "ep2d_bold_CardGameEPI_3",
        "SeriesNumber": 11,
        "SeriesTime": "123042.734000",
        "SliceLocation": -40.82422810566,
        "SliceThickness": 2.5,
        "SmallestImagePixelValue": 0,
        "SoftwareVersions": "syngo MR B19",
        "SpacingBetweenSlices": 3.0000000229381,
        "SpecificCharacterSet": "ISO_IR 100",
        "StudyID": "1",
        "StudyTime": "112056.703000",
        "TransmitCoilName": "Body",
        "VariableFlipAngleFlag": "N",
        "WindowCenterWidthExplanation": "Algo1",
        "dBdt": 0.0
      },
      "slices": {}
    },
    "modality": "bold",
    "run_id": 3,
    "subject_id": "236",
    "task_id": "cardgame",
    "time": {
      "samples": {
        "AcquisitionNumber": [
          1,
          2,
          3,
          4,
          5,
          6,
          7,
          8,
          9,
          10,
          11,
          12,
          13,
          14,
          15,
          16,
          17,
          18,
          19,
          20,
          21,
          22,
          23,
          24,
          25,
          26,
          27,
          28,
          29,
          30,
          31,
          32,
          33,
          34,
          35,
          36,
          37,
          38,
          39,
          40,
          41,
          42,
          43,
          44,
          45,
          46,
          47,
          48,
          49,
          50,
          51,
          52,
          53,
          54,
          55,
          56,
          57,
          58,
          59,
          60,
          61,
          62,
          63,
          64,
          65,
          66,
          67,
          68,
          69,
          70,
          71,
          72,
          73,
          74,
          75,
          76,
          77,
          78,
          79,
          80,
          81,
          82,
          83,
          84,
          85,
          86,
          87,
          88,
          89,
          90,
          91,
          92,
          93,
          94,
          95,
          96,
          97,
          98,
          99,
          100,
          101,
          102,
          103,
          104,
          105,
          106,
          107,
          108,
          109,
          110,
          111,
          112,
          113,
          114,
          115,
          116,
          117,
          118,
          119,
          120,
          121,
          122,
          123,
          124,
          125,
          126,
          127,
          128,
          129,
          130,
          131,
          132,
          133,
          134,
          135,
          136,
          137,
          138,
          139,
          140,
          141,
          142,
          143,
          144,
          145,
          146,
          147,
          148,
          149,
          150,
          151,
          152,
          153,
          154,
          155,
          156,
          157,
          158,
          159,
          160,
          161,
          162,
          163,
          164,
          165,
          166,
          167,
          168,
          169,
          170,
          171,
          172,
          173,
          174,
          175,
          176,
          177,
          178,
          179,
          180,
          181,
          182,
          183,
          184,
          185,
          186,
          187,
          188,
          189,
          190,
          191,
          192,
          193,
          194,
          195,
          196,
          197,
          198,
          199,
          200,
          201,
          202,
          203,
          204,
          205,
          206,
          207,
          208,
          209,
          210,
          211,
          212,
          213,
          214,
          215,
          216,
          217,
          218,
          219,
          220,
          221,
          222,
          223,
          224,
          225,
          226,
          227,
          228,
          229,
          230,
          231,
          232,
          233,
          234,
          235,
          236,
          237,
          238,
          239,
          240,
          241,
          242,
          243,
          244,
          245,
          246,
          247,
          248,
          249,
          250,
          251,
          252,
          253,
          254,
          255,
          256,
          257,
          258
        ],
        "AcquisitionTime": [
          "123001.552500",
          "123003.562500",
          "123005.570000",
          "123007.577500",
          "123009.585000",
          "123011.595000",
          "123013.602500",
          "123015.610000",
          "123017.617500",
          "123019.625000",
          "123021.635000",
          "123023.642500",
          "123025.650000",
          "123027.657500",
          "123029.665000",
          "123031.675000",
          "123033.682500",
          "123035.690000",
          "123037.697500",
          "123039.707500",
          "123041.715000",
          "123043.722500",
          "123045.730000",
          "123047.737500",
          "123049.747500",
          "123051.755000",
          "123053.762500",
          "123055.770000",
          "123057.777500",
          "123059.787500",
          "123101.795000",
          "123103.802500",
          "123105.810000",
          "123107.817500",
          "123109.827500",
          "123111.835000",
          "123113.842500",
          "123115.850000",
          "123117.860000",
          "123119.867500",
          "123121.875000",
          "123123.882500",
          "123125.890000",
          "123127.900000",
          "123129.907500",
          "123131.915000",
          "123133.922500",
          "123135.930000",
          "123137.940000",
          "123139.947500",
          "123141.955000",
          "123143.962500",
          "123145.972500",
          "123147.980000",
          "123149.987500",
          "123151.995000",
          "123154.002500",
          "123156.012500",
          "123158.020000",
          "123200.027500",
          "123202.035000",
          "123204.042500",
          "123206.052500",
          "123208.060000",
          "123210.067500",
          "123212.075000",
          "123214.085000",
          "123216.092500",
          "123218.100000",
          "123220.107500",
          "123222.115000",
          "123224.125000",
          "123226.132500",
          "123228.140000",
          "123230.147500",
          "123232.155000",
          "123234.165000",
          "123236.172500",
          "123238.180000",
          "123240.187500",
          "123242.197500",
          "123244.205000",
          "123246.212500",
          "123248.220000",
          "123250.227500",
          "123252.237500",
          "123254.245000",
          "123256.252500",
          "123258.260000",
          "123300.267500",
          "123302.277500",
          "123304.285000",
          "123306.292500",
          "123308.300000",
          "123310.307500",
          "123312.317500",
          "123314.325000",
          "123316.332500",
          "123318.340000",
          "123320.350000",
          "123322.357500",
          "123324.365000",
          "123326.372500",
          "123328.380000",
          "123330.390000",
          "123332.397500",
          "123334.405000",
          "123336.412500",
          "123338.420000",
          "123340.430000",
          "123342.437500",
          "123344.445000",
          "123346.452500",
          "123348.462500",
          "123350.470000",
          "123352.477500",
          "123354.485000",
          "123356.492500",
          "123358.502500",
          "123400.510000",
          "123402.517500",
          "123404.525000",
          "123406.532500",
          "123408.542500",
          "123410.550000",
          "123412.557500",
          "123414.565000",
          "123416.575000",
          "123418.582500",
          "123420.590000",
          "123422.597500",
          "123424.605000",
          "123426.615000",
          "123428.622500",
          "123430.630000",
          "123432.637500",
          "123434.645000",
          "123436.655000",
          "123438.662500",
          "123440.670000",
          "123442.677500",
          "123444.685000",
          "123446.695000",
          "123448.702500",
          "123450.710000",
          "123452.717500",
          "123454.727500",
          "123456.735000",
          "123458.742500",
          "123500.750000",
          "123502.757500",
          "123504.767500",
          "123506.775000",
          "123508.782500",
          "123510.790000",
          "123512.797500",
          "123514.807500",
          "123516.815000",
          "123518.822500",
          "123520.830000",
          "123522.840000",
          "123524.847500",
          "123526.855000",
          "123528.862500",
          "123530.870000",
          "123532.880000",
          "123534.887500",
          "123536.895000",
          "123538.902500",
          "123540.910000",
          "123542.920000",
          "123544.927500",
          "123546.935000",
          "123548.942500",
          "123550.952500",
          "123552.960000",
          "123554.967500",
          "123556.975000",
          "123558.982500",
          "123600.992500",
          "123603.000000",
          "123605.007500",
          "123607.015000",
          "123609.022500",
          "123611.032500",
          "123613.040000",
          "123615.047500",
          "123617.055000",
          "123619.062500",
          "123621.072500",
          "123623.080000",
          "123625.087500",
          "123627.095000",
          "123629.105000",
          "123631.112500",
          "123633.120000",
          "123635.127500",
          "123637.135000",
          "123639.145000",
          "123641.152500",
          "123643.160000",
          "123645.167500",
          "123647.175000",
          "123649.185000",
          "123651.192500",
          "123653.200000",
          "123655.207500",
          "123657.217500",
          "123659.225000",
          "123701.232500",
          "123703.240000",
          "123705.247500",
          "123707.257500",
          "123709.265000",
          "123711.272500",
          "123713.280000",
          "123715.287500",
          "123717.297500",
          "123719.305000",
          "123721.312500",
          "123723.320000",
          "123725.330000",
          "123727.337500",
          "123729.345000",
          "123731.352500",
          "123733.360000",
          "123735.370000",
          "123737.377500",
          "123739.385000",
          "123741.392500",
          "123743.400000",
          "123745.410000",
          "123747.417500",
          "123749.425000",
          "123751.432500",
          "123753.440000",
          "123755.450000",
          "123757.457500",
          "123759.465000",
          "123801.472500",
          "123803.482500",
          "123805.490000",
          "123807.497500",
          "123809.505000",
          "123811.512500",
          "123813.522500",
          "123815.530000",
          "123817.537500",
          "123819.545000",
          "123821.552500",
          "123823.562500",
          "123825.570000",
          "123827.577500",
          "123829.585000",
          "123831.595000",
          "123833.602500",
          "123835.610000",
          "123837.617500"
        ],
        "ContentTime": [
          "123042.750000",
          "123042.750000",
          "123042.750000",
          "123042.750000",
          "123042.750000",
          "123042.750000",
          "123042.750000",
          "123042.765000",
          "123042.765000",
          "123042.765000",
          "123042.765000",
          "123042.765000",
          "123042.765000",
          "123042.765000",
          "123042.781000",
          "123042.781000",
          "123042.781000",
          "123042.781000",
          "123042.781000",
          "123042.781000",
          "123122.734000",
          "123122.734000",
          "123122.750000",
          "123122.750000",
          "123122.750000",
          "123122.750000",
          "123122.750000",
          "123122.750000",
          "123122.750000",
          "123122.765000",
          "123122.765000",
          "123122.765000",
          "123122.765000",
          "123122.765000",
          "123122.765000",
          "123122.765000",
          "123122.781000",
          "123122.781000",
          "123122.781000",
          "123122.781000",
          "123202.734000",
          "123202.734000",
          "123202.750000",
          "123202.750000",
          "123202.750000",
          "123202.750000",
          "123202.750000",
          "123202.750000",
          "123202.750000",
          "123202.765000",
          "123202.765000",
          "123202.765000",
          "123202.765000",
          "123202.765000",
          "123202.765000",
          "123202.765000",
          "123202.781000",
          "123202.781000",
          "123202.781000",
          "123202.781000",
          "123242.734000",
          "123242.734000",
          "123242.750000",
          "123242.750000",
          "123242.750000",
          "123242.750000",
          "123242.750000",
          "123242.750000",
          "123242.750000",
          "123242.765000",
          "123242.765000",
          "123242.765000",
          "123242.765000",
          "123242.765000",
          "123242.765000",
          "123242.765000",
          "123242.781000",
          "123242.781000",
          "123242.781000",
          "123242.781000",
          "123322.734000",
          "123322.734000",
          "123322.750000",
          "123322.750000",
          "123322.750000",
          "123322.750000",
          "123322.750000",
          "123322.750000",
          "123322.750000",
          "123322.765000",
          "123322.765000",
          "123322.765000",
          "123322.765000",
          "123322.765000",
          "123322.765000",
          "123322.765000",
          "123322.781000",
          "123322.781000",
          "123322.781000",
          "123322.781000",
          "123402.734000",
          "123402.734000",
          "123402.750000",
          "123402.750000",
          "123402.750000",
          "123402.750000",
          "123402.750000",
          "123402.750000",
          "123402.750000",
          "123402.765000",
          "123402.765000",
          "123402.765000",
          "123402.765000",
          "123402.765000",
          "123402.765000",
          "123402.765000",
          "123402.781000",
          "123402.781000",
          "123402.781000",
          "123402.781000",
          "123442.734000",
          "123442.734000",
          "123442.750000",
          "123442.750000",
          "123442.750000",
          "123442.750000",
          "123442.750000",
          "123442.750000",
          "123442.750000",
          "123442.765000",
          "123442.765000",
          "123442.765000",
          "123442.765000",
          "123442.765000",
          "123442.765000",
          "123442.765000",
          "123442.781000",
          "123442.781000",
          "123442.781000",
          "123442.781000",
          "123522.734000",
          "123522.734000",
          "123522.750000",
          "123522.750000",
          "123522.750000",
          "123522.750000",
          "123522.750000",
          "123522.750000",
          "123522.765000",
          "123522.765000",
          "123522.765000",
          "123522.765000",
          "123522.765000",
          "123522.765000",
          "123522.781000",
          "123522.781000",
          "123522.781000",
          "123522.781000",
          "123522.781000",
          "123522.781000",
          "123602.734000",
          "123602.734000",
          "123602.750000",
          "123602.750000",
          "123602.750000",
          "123602.750000",
          "123602.750000",
          "123602.750000",
          "123602.750000",
          "123602.765000",
          "123602.765000",
          "123602.765000",
          "123602.765000",
          "123602.765000",
          "123602.765000",
          "123602.765000",
          "123602.781000",
          "123602.781000",
          "123602.781000",
          "123602.781000",
          "123642.734000",
          "123642.734000",
          "123642.750000",
          "123642.750000",
          "123642.750000",
          "123642.750000",
          "123642.750000",
          "123642.750000",
          "123642.750000",
          "123642.765000",
          "123642.765000",
          "123642.765000",
          "123642.765000",
          "123642.765000",
          "123642.765000",
          "123642.765000",
          "123642.765000",
          "123642.781000",
          "123642.781000",
          "123642.781000",
          "123722.734000",
          "123722.734000",
          "123722.750000",
          "123722.750000",
          "123722.750000",
          "123722.750000",
          "123722.750000",
          "123722.750000",
          "123722.750000",
          "123722.765000",
          "123722.765000",
          "123722.765000",
          "123722.765000",
          "123722.765000",
          "123722.765000",
          "123722.765000",
          "123722.765000",
          "123722.781000",
          "123722.781000",
          "123722.781000",
          "123802.734000",
          "123802.734000",
          "123802.750000",
          "123802.750000",
          "123802.750000",
          "123802.750000",
          "123802.750000",
          "123802.750000",
          "123802.750000",
          "123802.765000",
          "123802.765000",
          "123802.765000",
          "123802.765000",
          "123802.765000",
          "123802.765000",
          "123802.765000",
          "123802.781000",
          "123802.781000",
          "123802.781000",
          "123802.781000",
          "123837.593000",
          "123837.593000",
          "123837.593000",
          "123837.593000",
          "123837.593000",
          "123837.609000",
          "123837.609000",
          "123837.609000",
          "123837.609000",
          "123837.609000",
          "123837.609000",
          "123837.609000",
          "123837.625000",
          "123837.625000",
          "123837.625000",
          "123837.625000",
          "123837.625000",
          "123837.625000"
        ],
        "InstanceCreationTime": [
          "123042.750000",
          "123042.750000",
          "123042.750000",
          "123042.750000",
          "123042.750000",
          "123042.750000",
          "123042.750000",
          "123042.765000",
          "123042.765000",
          "123042.765000",
          "123042.765000",
          "123042.765000",
          "123042.765000",
          "123042.765000",
          "123042.781000",
          "123042.781000",
          "123042.781000",
          "123042.781000",
          "123042.781000",
          "123042.781000",
          "123122.734000",
          "123122.734000",
          "123122.750000",
          "123122.750000",
          "123122.750000",
          "123122.750000",
          "123122.750000",
          "123122.750000",
          "123122.750000",
          "123122.765000",
          "123122.765000",
          "123122.765000",
          "123122.765000",
          "123122.765000",
          "123122.765000",
          "123122.765000",
          "123122.781000",
          "123122.781000",
          "123122.781000",
          "123122.781000",
          "123202.734000",
          "123202.734000",
          "123202.750000",
          "123202.750000",
          "123202.750000",
          "123202.750000",
          "123202.750000",
          "123202.750000",
          "123202.750000",
          "123202.765000",
          "123202.765000",
          "123202.765000",
          "123202.765000",
          "123202.765000",
          "123202.765000",
          "123202.765000",
          "123202.781000",
          "123202.781000",
          "123202.781000",
          "123202.781000",
          "123242.734000",
          "123242.734000",
          "123242.750000",
          "123242.750000",
          "123242.750000",
          "123242.750000",
          "123242.750000",
          "123242.750000",
          "123242.750000",
          "123242.765000",
          "123242.765000",
          "123242.765000",
          "123242.765000",
          "123242.765000",
          "123242.765000",
          "123242.765000",
          "123242.781000",
          "123242.781000",
          "123242.781000",
          "123242.781000",
          "123322.734000",
          "123322.734000",
          "123322.750000",
          "123322.750000",
          "123322.750000",
          "123322.750000",
          "123322.750000",
          "123322.750000",
          "123322.750000",
          "123322.765000",
          "123322.765000",
          "123322.765000",
          "123322.765000",
          "123322.765000",
          "123322.765000",
          "123322.765000",
          "123322.781000",
          "123322.781000",
          "123322.781000",
          "123322.781000",
          "123402.734000",
          "123402.734000",
          "123402.750000",
          "123402.750000",
          "123402.750000",
          "123402.750000",
          "123402.750000",
          "123402.750000",
          "123402.750000",
          "123402.765000",
          "123402.765000",
          "123402.765000",
          "123402.765000",
          "123402.765000",
          "123402.765000",
          "123402.765000",
          "123402.781000",
          "123402.781000",
          "123402.781000",
          "123402.781000",
          "123442.734000",
          "123442.734000",
          "123442.750000",
          "123442.750000",
          "123442.750000",
          "123442.750000",
          "123442.750000",
          "123442.750000",
          "123442.750000",
          "123442.765000",
          "123442.765000",
          "123442.765000",
          "123442.765000",
          "123442.765000",
          "123442.765000",
          "123442.765000",
          "123442.781000",
          "123442.781000",
          "123442.781000",
          "123442.781000",
          "123522.734000",
          "123522.734000",
          "123522.750000",
          "123522.750000",
          "123522.750000",
          "123522.750000",
          "123522.750000",
          "123522.750000",
          "123522.765000",
          "123522.765000",
          "123522.765000",
          "123522.765000",
          "123522.765000",
          "123522.765000",
          "123522.781000",
          "123522.781000",
          "123522.781000",
          "123522.781000",
          "123522.781000",
          "123522.781000",
          "123602.734000",
          "123602.734000",
          "123602.750000",
          "123602.750000",
          "123602.750000",
          "123602.750000",
          "123602.750000",
          "123602.750000",
          "123602.750000",
          "123602.765000",
          "123602.765000",
          "123602.765000",
          "123602.765000",
          "123602.765000",
          "123602.765000",
          "123602.765000",
          "123602.781000",
          "123602.781000",
          "123602.781000",
          "123602.781000",
          "123642.734000",
          "123642.734000",
          "123642.750000",
          "123642.750000",
          "123642.750000",
          "123642.750000",
          "123642.750000",
          "123642.750000",
          "123642.750000",
          "123642.765000",
          "123642.765000",
          "123642.765000",
          "123642.765000",
          "123642.765000",
          "123642.765000",
          "123642.765000",
          "123642.765000",
          "123642.781000",
          "123642.781000",
          "123642.781000",
          "123722.734000",
          "123722.734000",
          "123722.750000",
          "123722.750000",
          "123722.750000",
          "123722.750000",
          "123722.750000",
          "123722.750000",
          "123722.750000",
          "123722.765000",
          "123722.765000",
          "123722.765000",
          "123722.765000",
          "123722.765000",
          "123722.765000",
          "123722.765000",
          "123722.765000",
          "123722.781000",
          "123722.781000",
          "123722.781000",
          "123802.734000",
          "123802.734000",
          "123802.750000",
          "123802.750000",
          "123802.750000",
