{
  "AcquisitionMatrixPE": 68,
  "AcquisitionNumber": 1,
  "AcquisitionTime": "11:20:29.270000",
  "BandwidthPerPixelPhaseEncode": 31.289,
  "BaseResolution": 68,
  "CoilString": "C:HEA;HEP",
  "ConversionSoftware": "dcm2niix",
  "ConversionSoftwareVersion": "v1.0.20190902",
  "DerivedVendorReportedEchoSpacing": 0.000470002,
  "DeviceSerialNumber": "35450",
  "DwellTime": 3e-06,
  "EchoTime": 0.023,
  "EffectiveEchoSpacing": 0.000470002,
  "FlipAngle": 76,
  "ImageOrientationPatientDICOM": [0.99961, 0.00717954, 0.0269828, 3.16756e-08, 0.966376, -0.257133],
  "ImageType": [
    "ORIGINAL",
    "PRIMARY",
    "M",
    "ND",
    "MOSAIC"
],
  "ImagingFrequency": 123.219,
  "InPlanePhaseEncodingDirectionDICOM": "COL",
  "InstitutionAddress": "Univeristy_Ave._197_Newark_North_East_US_07102-1814",
  "InstitutionName": "RUBIC",
  "InstitutionalDepartmentName": "Department",
  "MRAcquisitionType": "2D",
  "MagneticFieldStrength": 3,
  "Manufacturer": "Siemens",
  "ManufacturersModelName": "TrioTim",
  "Modality": "MR",
  "PartialFourier": 1,
  "PatientPosition": "HFS",
  "PercentPhaseFOV": 100,
  "PhaseEncodingDirection": "j-",
  "PhaseEncodingSteps": 68,
  "PhaseResolution": 1,
  "PixelBandwidth": 2451,
  "ProcedureStepDescription": "Krekelberg_David",
  "ProtocolName": "ep2d_bold_RestEPI_3",
  "PulseSequenceDetails": "%SiemensSeq%_ep2d_bold",
  "ReceiveCoilName": "HeadMatrix",
  "ReconMatrixPE": 68,
  "RepetitionTime": 2,
  "SAR": 0.16295,
  "ScanOptions": "FS",
  "ScanningSequence": "EP",
  "SequenceName": "_epfid2d1_68",
  "SequenceVariant": "SK",
  "SeriesDescription": "ep2d_bold_RestEPI_3",
  "SeriesNumber": 9,
  "ShimSetting": [1964, -608, -7552, 1098, 134, -16, -197, -115],
  "SliceThickness": 2.5,
  "SliceTiming": [1.9525, 1.895, 1.84, 1.785, 1.7275, 1.6725, 1.6175, 1.5625, 1.505, 1.45, 1.395, 1.3375, 1.2825, 1.2275, 1.17, 1.115, 1.06, 1.005, 0.9475, 0.8925, 0.8375, 0.78, 0.725, 0.67, 0.6125, 0.5575, 0.5025, 0.445, 0.39, 0.335, 0.28, 0.2225, 0.1675, 0.1125, 0.055, 0],
  "SoftwareVersions": "syngo_MR_B19",
  "SpacingBetweenSlices": 3,
  "StationName": "MRC35450",
  "TaskName": "rest",
  "TotalReadoutTime": 0.0314901,
  "TxRefAmp": 315.632,
  "dcmmeta_affine": [
    [-2.9988303184509277, 9.502666387106729e-08, 0.08376491069793701, 102.52824401855469],
    [-0.021538613364100456, 2.8991281986236572, -0.7710976004600525, -63.80298614501953],
    [0.08094842731952667, 0.7713983654975891, 2.8979978561401367, -70.1078872680664],
    [0.0, 0.0, 0.0, 1.0]
],
  "dcmmeta_reorient_transform": [
    [0.0, -1.0, 0.0, 67.0],
    [1.0, 0.0, 0.0, 0.0],
    [0.0, 0.0, 1.0, 0.0],
    [0.0, 0.0, 0.0, 1.0]
],
  "dcmmeta_shape": [68, 68, 36, 240],
  "dcmmeta_slice_dim": 2,
  "dcmmeta_version": 0.6,
  "global": {
    "const": {
      "AcquisitionMatrix": [68, 0, 0, 68],
      "AngioFlag": "N",
      "BitsAllocated": 16,
      "BitsStored": 12,
      "Columns": 408,
      "EchoNumbers": 1,
      "EchoTime": 23.0,
      "EchoTrainLength": 1,
      "FlipAngle": 76.0,
      "HighBit": 11,
      "ImageOrientationPatient": [0.99961011512437, 0.00717953750845, 0.02698280901258, 3.1675555e-08, 0.96637608002675, -0.2571327905035],
      "ImagePositionPatient": [-612.32942219831, -626.95197276125, 98.952294501316],
      "ImageType": [
        "ORIGINAL",
        "PRIMARY",
        "M",
        "ND",
        "MOSAIC"
],
      "ImagedNucleus": "1H",
      "ImagingFrequency": 123.218527,
      "InPlanePhaseEncodingDirection": "COL",
      "MRAcquisitionType": "2D",
      "MagneticFieldStrength": 3.0,
      "Manufacturer": "SIEMENS",
      "ManufacturerModelName": "TrioTim",
      "Modality": "MR",
      "NumberOfAverages": 1.0,
      "NumberOfPhaseEncodingSteps": 68,
      "PercentPhaseFieldOfView": 100.0,
      "PercentSampling": 100.0,
      "PerformedProcedureStepStartTime": "102339.875000",
      "PhotometricInterpretation": "MONOCHROME2",
      "PixelBandwidth": 2451.0,
      "PixelRepresentation": 0,
      "PixelSpacing": [3.0, 3.0],
      "ProtocolName": "ep2d_bold_RestEPI_3",
      "RepetitionTime": 2000.0,
      "Rows": 408,
      "SAR": 0.16294957221921,
      "SamplesPerPixel": 1,
      "ScanOptions": "FS",
      "ScanningSequence": "EP",
      "SequenceName": "*epfid2d1_68",
      "SequenceVariant": "SK",
      "SeriesDescription": "ep2d_bold_RestEPI_3",
      "SeriesNumber": 9,
      "SeriesTime": "112125.078000",
      "SliceLocation": -48.461970777936,
      "SliceThickness": 2.5,
      "SmallestImagePixelValue": 0,
      "SoftwareVersions": "syngo MR B19",
      "SpacingBetweenSlices": 3.0000000176145,
      "SpecificCharacterSet": "ISO_IR 100",
      "StudyID": "1",
      "StudyTime": "102339.765000",
      "TransmitCoilName": "Body",
      "VariableFlipAngleFlag": "N",
      "WindowCenterWidthExplanation": "Algo1",
      "dBdt": 0.0},
    "slices": {}
  },
  "time": {
    "samples": {
      "AcquisitionNumber": [1, 2, 3, 4, 5, 6, 7, 8, 9, 10, 11, 12, 13, 14, 15, 16, 17, 18, 19, 20, 21, 22, 23, 24, 25, 26, 27, 28, 29, 30, 31, 32, 33, 34, 35, 36, 37, 38, 39, 40, 41, 42, 43, 44, 45, 46, 47, 48, 49, 50, 51, 52, 53, 54, 55, 56, 57, 58, 59, 60, 61, 62, 63, 64, 65, 66, 67, 68, 69, 70, 71, 72, 73, 74, 75, 76, 77, 78, 79, 80, 81, 82, 83, 84, 85, 86, 87, 88, 89, 90, 91, 92, 93, 94, 95, 96, 97, 98, 99, 100, 101, 102, 103, 104, 105, 106, 107, 108, 109, 110, 111, 112, 113, 114, 115, 116, 117, 118, 119, 120, 121, 122, 123, 124, 125, 126, 127, 128, 129, 130, 131, 132, 133, 134, 135, 136, 137, 138, 139, 140, 141, 142, 143, 144, 145, 146, 147, 148, 149, 150, 151, 152, 153, 154, 155, 156, 157, 158, 159, 160, 161, 162, 163, 164, 165, 166, 167, 168, 169, 170, 171, 172, 173, 174, 175, 176, 177, 178, 179, 180, 181, 182, 183, 184, 185, 186, 187, 188, 189, 190, 191, 192, 193, 194, 195, 196, 197, 198, 199, 200, 201, 202, 203, 204, 205, 206, 207, 208, 209, 210, 211, 212, 213, 214, 215, 216, 217, 218, 219, 220, 221, 222, 223, 224, 225, 226, 227, 228, 229, 230, 231, 232, 233, 234, 235, 236, 237, 238, 239, 240],
      "AcquisitionTime": ["112029.270000", "112031.277500", "112033.285000", "112035.292500", "112037.302500", "112039.310000", "112041.317500", "112043.325000", "112045.332500", "112047.342500", "112049.350000", "112051.357500", "112053.365000", "112055.372500", "112057.382500", "112059.390000", "112101.397500", "112103.405000", "112105.415000", "112107.422500", "112109.430000", "112111.437500", "112113.445000", "112115.455000", "112117.462500", "112119.470000", "112121.477500", "112123.485000", "112125.495000", "112127.502500", "112129.510000", "112131.517500", "112133.527500", "112135.535000", "112137.542500", "112139.550000", "112141.557500", "112143.567500", "112145.575000", "112147.582500", "112149.590000", "112151.597500", "112153.607500", "112155.615000", "112157.622500", "112159.630000", "112201.637500", "112203.647500", "112205.655000", "112207.662500", "112209.670000", "112211.680000", "112213.687500", "112215.695000", "112217.702500", "112219.710000", "112221.720000", "112223.727500", "112225.735000", "112227.742500", "112229.750000", "112231.760000", "112233.767500", "112235.775000", "112237.782500", "112239.792500", "112241.800000", "112243.807500", "112245.815000", "112247.822500", "112249.832500", "112251.840000", "112253.847500", "112255.855000", "112257.862500", "112259.872500", "112301.880000", "112303.887500", "112305.895000", "112307.905000", "112309.912500", "112311.920000", "112313.927500", "112315.935000", "112317.945000", "112319.952500", "112321.960000", "112323.967500", "112325.975000", "112327.985000", "112329.992500", "112332.000000", "112334.007500", "112336.017500", "112338.025000", "112340.032500", "112342.040000", "112344.047500", "112346.057500", "112348.065000", "112350.072500", "112352.080000", "112354.087500", "112356.097500", "112358.105000", "112400.112500", "112402.120000", "112404.127500", "112406.137500", "112408.145000", "112410.152500", "112412.160000", "112414.170000", "112416.177500", "112418.185000", "112420.192500", "112422.200000", "112424.210000", "112426.217500", "112428.225000", "112430.232500", "112432.240000", "112434.250000", "112436.257500", "112438.265000", "112440.272500", "112442.282500", "112444.290000", "112446.297500", "112448.305000", "112450.312500", "112452.322500", "112454.330000", "112456.337500", "112458.345000", "112500.352500", "112502.362500", "112504.370000", "112506.377500", "112508.385000", "112510.395000", "112512.402500", "112514.410000", "112516.417500", "112518.425000", "112520.435000", "112522.442500", "112524.450000", "112526.457500", "112528.465000", "112530.475000", "112532.482500", "112534.490000", "112536.497500", "112538.505000", "112540.515000", "112542.522500", "112544.530000", "112546.537500", "112548.547500", "112550.555000", "112552.562500", "112554.570000", "112556.577500", "112558.587500", "112600.595000", "112602.602500", "112604.610000", "112606.617500", "112608.627500", "112610.635000", "112612.642500", "112614.650000", "112616.660000", "112618.667500", "112620.675000", "112622.682500", "112624.690000", "112626.700000", "112628.707500", "112630.715000", "112632.722500", "112634.730000", "112636.740000", "112638.747500", "112640.755000", "112642.762500", "112644.772500", "112646.780000", "112648.787500", "112650.795000", "112652.802500", "112654.812500", "112656.820000", "112658.827500", "112700.835000", "112702.842500", "112704.852500", "112706.860000", "112708.867500", "112710.875000", "112712.882500", "112714.892500", "112716.900000", "112718.907500", "112720.915000", "112722.925000", "112724.932500", "112726.940000", "112728.947500", "112730.955000", "112732.965000", "112734.972500", "112736.980000", "112738.987500", "112740.995000", "112743.005000", "112745.012500", "112747.020000", "112749.027500", "112751.037500", "112753.045000", "112755.052500", "112757.060000", "112759.067500", "112801.077500", "112803.085000", "112805.092500", "112807.100000", "112809.107500", "112811.117500", "112813.125000", "112815.132500", "112817.140000", "112819.150000", "112821.157500", "112823.165000", "112825.172500", "112827.180000", "112829.190000"],
      "ContentTime": ["112125.078000", "112125.078000", "112125.093000", "112125.093000", "112125.093000", "112125.093000", "112125.093000", "112125.093000", "112125.093000", "112125.109000", "112125.109000", "112125.109000", "112125.109000", "112125.125000", "112125.125000", "112125.125000", "112125.125000", "112125.140000", "112125.140000", "112125.140000", "112125.140000", "112125.140000", "112125.140000", "112125.156000", "112125.156000", "112125.156000", "112125.156000", "112205.078000", "112205.078000", "112205.078000", "112205.078000", "112205.078000", "112205.093000", "112205.093000", "112205.093000", "112205.093000", "112205.093000", "112205.093000", "112205.093000", "112205.109000", "112205.109000", "112205.109000", "112205.109000", "112205.109000", "112205.109000", "112205.125000", "112205.125000", "112245.078000", "112245.078000", "112245.078000", "112245.078000", "112245.078000", "112245.093000", "112245.093000", "112245.093000", "112245.093000", "112245.093000", "112245.093000", "112245.093000", "112245.109000", "112245.109000", "112245.109000", "112245.109000", "112245.109000", "112245.109000", "112245.125000", "112245.125000", "112325.078000", "112325.078000", "112325.078000", "112325.078000", "112325.078000", "112325.093000", "112325.093000", "112325.093000", "112325.093000", "112325.093000", "112325.093000", "112325.093000", "112325.109000", "112325.109000", "112325.109000", "112325.109000", "112325.109000", "112325.125000", "112325.125000", "112325.125000", "112405.078000", "112405.078000", "112405.078000", "112405.078000", "112405.078000", "112405.093000", "112405.093000", "112405.093000", "112405.093000", "112405.093000", "112405.093000", "112405.093000", "112405.109000", "112405.109000", "112405.109000", "112405.109000", "112405.109000", "112405.125000", "112405.125000", "112405.125000", "112445.078000", "112445.078000", "112445.078000", "112445.078000", "112445.078000", "112445.093000", "112445.093000", "112445.093000", "112445.093000", "112445.093000", "112445.093000", "112445.093000", "112445.109000", "112445.109000", "112445.109000", "112445.109000", "112445.109000", "112445.125000", "112445.125000", "112445.125000", "112525.078000", "112525.078000", "112525.078000", "112525.078000", "112525.078000", "112525.093000", "112525.093000", "112525.093000", "112525.093000", "112525.093000", "112525.093000", "112525.093000", "112525.109000", "112525.109000", "112525.109000", "112525.109000", "112525.109000", "112525.125000", "112525.125000", "112525.125000", "112605.078000", "112605.078000", "112605.078000", "112605.078000", "112605.078000", "112605.093000", "112605.093000", "112605.093000", "112605.093000", "112605.093000", "112605.093000", "112605.093000", "112605.109000", "112605.109000", "112605.109000", "112605.109000", "112605.109000", "112605.109000", "112605.109000", "112605.125000", "112645.078000", "112645.078000", "112645.078000", "112645.078000", "112645.078000", "112645.093000", "112645.093000", "112645.093000", "112645.093000", "112645.093000", "112645.093000", "112645.093000", "112645.109000", "112645.109000", "112645.109000", "112645.109000", "112645.109000", "112645.109000", "112645.125000", "112645.125000", "112725.078000", "112725.078000", "112725.078000", "112725.078000", "112725.078000", "112725.093000", "112725.093000", "112725.093000", "112725.093000", "112725.093000", "112725.093000", "112725.093000", "112725.109000", "112725.109000", "112725.109000", "112725.109000", "112725.109000", "112725.109000", "112725.109000", "112725.125000", "112805.078000", "112805.078000", "112805.078000", "112805.078000", "112805.078000", "112805.093000", "112805.093000", "112805.093000", "112805.093000", "112805.093000", "112805.093000", "112805.093000", "112805.093000", "112805.109000", "112805.109000", "112805.109000", "112805.125000", "112805.125000", "112805.125000", "112805.125000", "112829.156000", "112829.156000", "112829.156000", "112829.156000", "112829.171000", "112829.171000", "112829.171000", "112829.171000", "112829.171000", "112829.171000", "112829.171000", "112829.187000", "112829.187000"],
      "InstanceCreationTime": ["112125.078000", "112125.078000", "112125.093000", "112125.093000", "112125.093000", "112125.093000", "112125.093000", "112125.093000", "112125.093000", "112125.109000", "112125.109000", "112125.109000", "112125.109000", "112125.125000", "112125.125000", "112125.125000", "112125.125000", "112125.140000", "112125.140000", "112125.140000", "112125.140000", "112125.140000", "112125.140000", "112125.156000", "112125.156000", "112125.156000", "112125.156000", "112205.078000", "112205.078000", "112205.078000", "112205.078000", "112205.078000", "112205.093000", "112205.093000", "112205.093000", "112205.093000", "112205.093000", "112205.093000", "112205.093000", "112205.109000", "112205.109000", "112205.109000", "112205.109000", "112205.109000", "112205.109000", "112205.125000", "112205.125000", "112245.078000", "112245.078000", "112245.078000", "112245.078000", "112245.078000", "112245.093000", "112245.093000", "112245.093000", "112245.093000", "112245.093000", "112245.093000", "112245.093000", "112245.109000", "112245.109000", "112245.109000", "112245.109000", "112245.109000", "112245.109000", "112245.125000", "112245.125000", "112325.078000", "112325.078000", "112325.078000", "112325.078000", "112325.078000", "112325.093000", "112325.093000", "112325.093000", "112325.093000", "112325.093000", "112325.093000", "112325.093000", "112325.109000", "112325.109000", "112325.109000", "112325.109000", "112325.109000", "112325.125000", "112325.125000", "112325.125000", "112405.078000", "112405.078000", "112405.078000", "112405.078000", "112405.078000", "112405.093000", "112405.093000", "112405.093000", "112405.093000", "112405.093000", "112405.093000", "112405.093000", "112405.109000", "112405.109000", "112405.109000", "112405.109000", "112405.109000", "112405.125000", "112405.125000", "112405.125000", "112445.078000", "112445.078000", "112445.078000", "112445.078000", "112445.078000", "112445.093000", "112445.093000", "112445.093000", "112445.093000", "112445.093000", "112445.093000", "112445.093000", "112445.109000", "112445.109000", "112445.109000", "112445.109000", "112445.109000", "112445.125000", "112445.125000", "112445.125000", "112525.078000", "112525.078000", "112525.078000", "112525.078000", "112525.078000", "112525.093000", "112525.093000", "112525.093000", "112525.093000", "112525.093000", "112525.093000", "112525.093000", "112525.109000", "112525.109000", "112525.109000", "112525.109000", "112525.109000", "112525.125000", "112525.125000", "112525.125000", "112605.078000", "112605.078000", "112605.078000", "112605.078000", "112605.078000", "112605.093000", "112605.093000", "112605.093000", "112605.093000", "112605.093000", "112605.093000", "112605.093000", "112605.109000", "112605.109000", "112605.109000", "112605.109000", "112605.109000", "112605.109000", "112605.109000", "112605.125000", "112645.078000", "112645.078000", "112645.078000", "112645.078000", "112645.078000", "112645.093000", "112645.093000", "112645.093000", "112645.093000", "112645.093000", "112645.093000", "112645.093000", "112645.109000", "112645.109000", "112645.109000", "112645.109000", "112645.109000", "112645.109000", "112645.125000", "112645.125000", "112725.078000", "112725.078000", "112725.078000", "112725.078000", "112725.078000", "112725.093000", "112725.093000", "112725.093000", "112725.093000", "112725.093000", "112725.093000", "112725.093000", "112725.109000", "112725.109000", "112725.109000", "112725.109000", "112725.109000", "112725.109000", "112725.109000", "112725.125000", "112805.078000", "112805.078000", "112805.078000", "112805.078000", "112805.078000", "112805.093000", "112805.093000", "112805.093000", "112805.093000", "112805.093000", "112805.093000", "112805.093000", "112805.093000", "112805.109000", "112805.109000", "112805.109000", "112805.125000", "112805.125000", "112805.125000", "112805.125000", "112829.156000", "112829.156000", "112829.156000", "112829.156000", "112829.171000", "112829.171000", "112829.171000", "112829.171000", "112829.171000", "112829.171000", "112829.171000", "112829.187000", "112829.187000"],
      "InstanceNumber": [1, 2, 3, 4, 5, 6, 7, 8, 9, 10, 11, 12, 13, 14, 15, 16, 17, 18, 19, 20, 21, 22, 23, 24, 25, 26, 27, 28, 29, 30, 31, 32, 33, 34, 35, 36, 37, 38, 39, 40, 41, 42, 43, 44, 45, 46, 47, 48, 49, 50, 51, 52, 53, 54, 55, 56, 57, 58, 59, 60, 61, 62, 63, 64, 65, 66, 67, 68, 69, 70, 71, 72, 73, 74, 75, 76, 77, 78, 79, 80, 81, 82, 83, 84, 85, 86, 87, 88, 89, 90, 91, 92, 93, 94, 95, 96, 97, 98, 99, 100, 101, 102, 103, 104, 105, 106, 107, 108, 109, 110, 111, 112, 113, 114, 115, 116, 117, 118, 119, 120, 121, 122, 123, 124, 125, 126, 127, 128, 129, 130, 131, 132, 133, 134, 135, 136, 137, 138, 139, 140, 141, 142, 143, 144, 145, 146, 147, 148, 149, 150, 151, 152, 153, 154, 155, 156, 157, 158, 159, 160, 161, 162, 163, 164, 165, 166, 167, 168, 169, 170, 171, 172, 173, 174, 175, 176, 177, 178, 179, 180, 181, 182, 183, 184, 185, 186, 187, 188, 189, 190, 191, 192, 193, 194, 195, 196, 197, 198, 199, 200, 201, 202, 203, 204, 205, 206, 207, 208, 209, 210, 211, 212, 213, 214, 215, 216, 217, 218, 219, 220, 221, 222, 223, 224, 225, 226, 227, 228, 229, 230, 231, 232, 233, 234, 235, 236, 237, 238, 239, 240],
      "LargestImagePixelValue": [1900, 1922, 1799, 1805, 1778, 1711, 1844, 1836, 1712, 1597, 1596, 1669, 1617, 1669, 1697, 1646, 1637, 1657, 1659, 1663, 1665, 1701, 1782, 1668, 1673, 1665, 1690, 1668, 1666, 1797, 1693, 1687, 1688, 1669, 1696, 1743, 1779, 1754, 1709, 1714, 1757, 1715, 1733, 1721, 1744, 1790, 1741, 1760, 1740, 1735, 1776, 1792, 1739, 1738, 1686, 1768, 1832, 1746, 1774, 1785, 1781, 1807, 1805, 1957, 1781, 1785, 1748, 1725, 1750, 1779, 1747, 1769, 1760, 1789, 1783, 1763, 1769, 1764, 1830, 1784, 1807, 1821, 1811, 1791, 1802, 1805, 1800, 1781, 1833, 1808, 1833, 1786, 1778, 1798, 1802, 1795, 1807, 1757, 1775, 1778, 1813, 1767, 1795, 1778, 1808, 1767, 1789, 1789, 1857, 1793, 1894, 1821, 1808, 1795, 1837, 1814, 1866, 1829, 1849, 1874, 1873, 1841, 1869, 1866, 1850, 1861, 1874, 1817, 1866, 1665, 1736, 1812, 1799, 1808, 1781, 1778, 1808, 1730, 1793, 1764, 1850, 1760, 1805, 1815, 1822, 1858, 1827, 1802, 1641, 1718, 1736, 1762, 1712, 1723, 1736, 1698, 1714, 1718, 1724, 1740, 1711, 1755, 1707, 1710, 1633, 1766, 1766, 1755, 1684, 1726, 1684, 1660, 1704, 1651, 1870, 1775, 1740, 1606, 1634, 1699, 1586, 1627, 1625, 1592, 1581, 1633, 1591, 1624, 1618, 1584, 1594, 1583, 1613, 1607, 1660, 1605, 1602, 1586, 1565, 1585, 1590, 1600, 1660, 1693, 1610, 1639, 1608, 1611, 1824, 1728, 1631, 1665, 1751, 1616, 1589, 1610, 1635, 1645, 1683, 1700, 1687, 1740, 1674, 1633, 1658, 1657, 1660, 1659, 1653, 1644, 1616, 1682, 1672, 1623, 1654, 1676, 1661, 1663, 1635, 1627],
      "WindowCenter": [763.0, 763.0, 759.0, 757.0, 760.0, 754.0, 757.0, 760.0, 756.0, 754.0, 752.0, 754.0, 755.0, 754.0, 756.0, 754.0, 753.0, 752.0, 755.0, 753.0, 756.0, 752.0, 756.0, 753.0, 752.0, 751.0, 752.0, 752.0, 752.0, 754.0, 753.0, 754.0, 756.0, 755.0, 753.0, 758.0, 753.0, 754.0, 754.0, 754.0, 755.0, 755.0, 754.0, 756.0, 755.0, 759.0, 755.0, 755.0, 753.0, 755.0, 754.0, 756.0, 755.0, 758.0, 754.0, 758.0, 755.0, 753.0, 754.0, 753.0, 757.0, 758.0, 764.0, 759.0, 757.0, 757.0, 753.0, 754.0, 753.0, 753.0, 752.0, 755.0, 754.0, 756.0, 756.0, 757.0, 759.0, 756.0, 758.0, 758.0, 755.0, 754.0, 753.0, 753.0, 755.0, 754.0, 756.0, 756.0, 757.0, 756.0, 756.0, 754.0, 755.0, 754.0, 755.0, 754.0, 755.0, 756.0, 756.0, 756.0, 755.0, 757.0, 755.0, 757.0, 756.0, 755.0, 754.0, 757.0, 756.0, 758.0, 758.0, 758.0, 759.0, 755.0, 756.0, 753.0, 756.0, 759.0, 756.0, 758.0, 756.0, 756.0, 755.0, 759.0, 758.0, 755.0, 755.0, 754.0, 761.0, 754.0, 756.0, 753.0, 752.0, 751.0, 752.0, 754.0, 756.0, 755.0, 756.0, 757.0, 759.0, 757.0, 756.0, 756.0, 759.0, 756.0, 760.0, 758.0, 755.0, 756.0, 757.0, 755.0, 753.0, 754.0, 753.0, 754.0, 755.0, 755.0, 755.0, 755.0, 756.0, 757.0, 756.0, 757.0, 756.0, 756.0, 755.0, 758.0, 754.0, 756.0, 753.0, 754.0, 755.0, 756.0, 765.0, 757.0, 757.0, 753.0, 752.0, 752.0, 752.0, 753.0, 754.0, 753.0, 754.0, 754.0, 756.0, 755.0, 754.0, 752.0, 753.0, 755.0, 754.0, 754.0, 758.0, 754.0, 752.0, 751.0, 750.0, 751.0, 752.0, 752.0, 753.0, 754.0, 754.0, 754.0, 755.0, 756.0, 761.0, 757.0, 756.0, 761.0, 755.0, 755.0, 754.0, 754.0, 753.0, 755.0, 756.0, 758.0, 761.0, 755.0, 752.0, 750.0, 751.0, 752.0, 752.0, 753.0, 754.0, 751.0, 751.0, 752.0, 753.0, 753.0, 753.0, 757.0, 757.0, 753.0, 754.0, 753.0],
      "WindowWidth": [1624.0, 1623.0, 1608.0, 1604.0, 1612.0, 1597.0, 1606.0, 1611.0, 1603.0, 1597.0, 1591.0, 1597.0, 1600.0, 1597.0, 1604.0, 1597.0, 1596.0, 1591.0, 1601.0, 1595.0, 1602.0, 1594.0, 1603.0, 1596.0, 1593.0, 1589.0, 1592.0, 1592.0, 1593.0, 1600.0, 1596.0, 1600.0, 1602.0, 1601.0, 1595.0, 1610.0, 1596.0, 1597.0, 1598.0, 1597.0, 1603.0, 1601.0, 1600.0, 1603.0, 1601.0, 1612.0, 1602.0, 1600.0, 1595.0, 1600.0, 1600.0, 1604.0, 1601.0, 1607.0, 1597.0, 1610.0, 1602.0, 1595.0, 1599.0, 1597.0, 1607.0, 1609.0, 1622.0, 1615.0, 1607.0, 1607.0, 1596.0, 1599.0, 1595.0, 1597.0, 1593.0, 1602.0, 1599.0, 1606.0, 1604.0, 1607.0, 1614.0, 1604.0, 1611.0, 1610.0, 1601.0, 1600.0, 1597.0, 1597.0, 1602.0, 1600.0, 1604.0, 1604.0, 1607.0, 1604.0, 1605.0, 1599.0, 1602.0, 1600.0, 1602.0, 1600.0, 1603.0, 1604.0, 1603.0, 1604.0, 1601.0, 1607.0, 1602.0, 1608.0, 1604.0, 1601.0, 1599.0, 1605.0, 1605.0, 1608.0, 1612.0, 1610.0, 1610.0, 1600.0, 1604.0, 1597.0, 1605.0, 1611.0, 1606.0, 1610.0, 1604.0, 1603.0, 1602.0, 1613.0, 1611.0, 1601.0, 1603.0, 1598.0, 1620.0, 1600.0, 1606.0, 1597.0, 1595.0, 1593.0, 1595.0, 1599.0, 1603.0, 1603.0, 1605.0, 1609.0, 1612.0, 1608.0, 1603.0, 1605.0, 1612.0, 1604.0, 1617.0, 1609.0, 1605.0, 1605.0, 1607.0, 1603.0, 1597.0, 1600.0, 1598.0, 1600.0, 1602.0, 1602.0, 1603.0, 1601.0, 1605.0, 1606.0, 1604.0, 1608.0, 1604.0, 1604.0, 1602.0, 1610.0, 1601.0, 1604.0, 1598.0, 1601.0, 1603.0, 1605.0, 1629.0, 1606.0, 1608.0, 1597.0, 1597.0, 1594.0, 1595.0, 1599.0, 1599.0, 1597.0, 1601.0, 1602.0, 1605.0, 1603.0, 1599.0, 1594.0, 1596.0, 1603.0, 1601.0, 1600.0, 1611.0, 1602.0, 1594.0, 1591.0, 1591.0, 1591.0, 1596.0, 1595.0, 1597.0, 1600.0, 1601.0, 1601.0, 1603.0, 1605.0, 1618.0, 1606.0, 1604.0, 1618.0, 1606.0, 1602.0, 1600.0, 1599.0, 1599.0, 1602.0, 1605.0, 1610.0, 1619.0, 1606.0, 1596.0, 1592.0, 1594.0, 1595.0, 1597.0, 1599.0, 1600.0, 1593.0, 1594.0, 1596.0, 1600.0, 1600.0, 1599.0, 1608.0, 1609.0, 1600.0, 1601.0, 1600.0]
    },
    "slices": {}
  }
}