{
  "AcquisitionMatrixPE": 68,
  "AcquisitionNumber": 1,
  "AcquisitionTime": "16:01:43.282500",
  "BandwidthPerPixelPhaseEncode": 31.289,
  "BaseResolution": 68,
  "CoilString": "C:HEA;HEP",
  "ConversionSoftware": "dcm2niix",
  "ConversionSoftwareVersion": "v1.0.20190902",
  "DerivedVendorReportedEchoSpacing": 0.000470002,
  "DeviceSerialNumber": "35450",
  "DwellTime": 3e-06,
  "EchoTime": 0.023,
  "EffectiveEchoSpacing": 0.000470002,
  "FlipAngle": 76,
  "ImageOrientationPatientDICOM": [1, 0, 0, 0, 0.999391, -0.0348995],
  "ImageType": [
    "ORIGINAL",
    "PRIMARY",
    "M",
    "ND",
    "MOSAIC"
],
  "ImagingFrequency": 123.219,
  "InPlanePhaseEncodingDirectionDICOM": "COL",
  "InstitutionAddress": "Univeristy_Ave._197_Newark_North_East_US_07102-1814",
  "InstitutionName": "RUBIC",
  "InstitutionalDepartmentName": "Department",
  "MRAcquisitionType": "2D",
  "MagneticFieldStrength": 3,
  "Manufacturer": "Siemens",
  "ManufacturersModelName": "TrioTim",
  "Modality": "MR",
  "PartialFourier": 1,
  "PatientPosition": "HFS",
  "PercentPhaseFOV": 100,
  "PhaseEncodingDirection": "j-",
  "PhaseEncodingSteps": 68,
  "PhaseResolution": 1,
  "PixelBandwidth": 2451,
  "ProcedureStepDescription": "Krekelberg_David",
  "ProtocolName": "ep2d_bold_CardGameEPI_2",
  "PulseSequenceDetails": "%SiemensSeq%_ep2d_bold",
  "ReceiveCoilName": "HeadMatrix",
  "ReconMatrixPE": 68,
  "RepetitionTime": 2,
  "SAR": 0.213981,
  "ScanOptions": "FS",
  "ScanningSequence": "EP",
  "SequenceName": "_epfid2d1_68",
  "SequenceVariant": "SK",
  "SeriesDescription": "ep2d_bold_CardGameEPI_2",
  "SeriesNumber": 8,
  "ShimSetting": [1920, -692, -7654, 544, 104, -21, -246, 7],
  "SliceThickness": 2.5,
  "SliceTiming": [1.9525, 1.895, 1.84, 1.785, 1.7275, 1.6725, 1.6175, 1.5625, 1.505, 1.45, 1.395, 1.3375, 1.2825, 1.2275, 1.17, 1.115, 1.06, 1.0025, 0.9475, 0.8925, 0.8375, 0.78, 0.725, 0.67, 0.6125, 0.5575, 0.5025, 0.445, 0.39, 0.335, 0.28, 0.2225, 0.1675, 0.1125, 0.055, 0],
  "SoftwareVersions": "syngo_MR_B19",
  "SpacingBetweenSlices": 3,
  "StationName": "MRC35450",
  "TaskName": "cardgame",
  "TotalReadoutTime": 0.0314901,
  "TxRefAmp": 372.731,
  "dcmmeta_affine": [
    [-3.0, 0.0, 0.0, 102.0],
    [0.0, 2.9981725215911865, -0.10469849407672882, -75.41255187988281],
    [0.0, 0.10469849407672882, 2.9981725215911865, -34.90612030029297],
    [0.0, 0.0, 0.0, 1.0]
],
  "dcmmeta_reorient_transform": [
    [0.0, -1.0, 0.0, 67.0],
    [1.0, 0.0, 0.0, 0.0],
    [0.0, 0.0, 1.0, 0.0],
    [0.0, 0.0, 0.0, 1.0]
],
  "dcmmeta_shape": [68, 68, 36, 258],
  "dcmmeta_slice_dim": 2,
  "dcmmeta_version": 0.6,
  "global": {
    "const": {
      "AcquisitionMatrix": [68, 0, 0, 68],
      "AngioFlag": "N",
      "BitsAllocated": 16,
      "BitsStored": 12,
      "Columns": 408,
      "EchoNumbers": 1,
      "EchoTime": 23.0,
      "EchoTrainLength": 1,
      "FlipAngle": 76.0,
      "HighBit": 11,
      "ImageOrientationPatient": [1.0, 0.0, 0.0, 0.0, 0.99939082696012, -0.0348994983914],
      "ImagePositionPatient": [-612.0, -635.15432576329, -10.092575862644],
      "ImageType": [
        "ORIGINAL",
        "PRIMARY",
        "M",
        "ND",
        "MOSAIC"
],
      "ImagedNucleus": "1H",
      "ImagingFrequency": 123.218559,
      "InPlanePhaseEncodingDirection": "COL",
      "MRAcquisitionType": "2D",
      "MagneticFieldStrength": 3.0,
      "Manufacturer": "SIEMENS",
      "ManufacturerModelName": "TrioTim",
      "Modality": "MR",
      "NumberOfAverages": 1.0,
      "NumberOfPhaseEncodingSteps": 68,
      "PercentPhaseFieldOfView": 100.0,
      "PercentSampling": 100.0,
      "PerformedProcedureStepStartTime": "152922.984000",
      "PhotometricInterpretation": "MONOCHROME2",
      "PixelBandwidth": 2451.0,
      "PixelRepresentation": 0,
      "PixelSpacing": [3.0, 3.0],
      "ProtocolName": "ep2d_bold_CardGameEPI_2",
      "RepetitionTime": 2000.0,
      "Rows": 408,
      "SAR": 0.21398063787816,
      "SamplesPerPixel": 1,
      "ScanOptions": "FS",
      "ScanningSequence": "EP",
      "SequenceName": "*epfid2d1_68",
      "SequenceVariant": "SK",
      "SeriesDescription": "ep2d_bold_CardGameEPI_2",
      "SeriesNumber": 8,
      "SeriesTime": "160217.578000",
      "SliceLocation": -32.252995107785,
      "SliceThickness": 2.5,
      "SmallestImagePixelValue": 0,
      "SoftwareVersions": "syngo MR B19",
      "SpacingBetweenSlices": 3.0000000615615,
      "SpecificCharacterSet": "ISO_IR 100",
      "StudyID": "1",
      "StudyTime": "152922.937000",
      "TransmitCoilName": "Body",
      "VariableFlipAngleFlag": "N",
      "WindowCenterWidthExplanation": "Algo1",
      "dBdt": 0.0},
    "slices": {}
  },
  "time": {
    "samples": {
      "AcquisitionNumber": [1, 2, 3, 4, 5, 6, 7, 8, 9, 10, 11, 12, 13, 14, 15, 16, 17, 18, 19, 20, 21, 22, 23, 24, 25, 26, 27, 28, 29, 30, 31, 32, 33, 34, 35, 36, 37, 38, 39, 40, 41, 42, 43, 44, 45, 46, 47, 48, 49, 50, 51, 52, 53, 54, 55, 56, 57, 58, 59, 60, 61, 62, 63, 64, 65, 66, 67, 68, 69, 70, 71, 72, 73, 74, 75, 76, 77, 78, 79, 80, 81, 82, 83, 84, 85, 86, 87, 88, 89, 90, 91, 92, 93, 94, 95, 96, 97, 98, 99, 100, 101, 102, 103, 104, 105, 106, 107, 108, 109, 110, 111, 112, 113, 114, 115, 116, 117, 118, 119, 120, 121, 122, 123, 124, 125, 126, 127, 128, 129, 130, 131, 132, 133, 134, 135, 136, 137, 138, 139, 140, 141, 142, 143, 144, 145, 146, 147, 148, 149, 150, 151, 152, 153, 154, 155, 156, 157, 158, 159, 160, 161, 162, 163, 164, 165, 166, 167, 168, 169, 170, 171, 172, 173, 174, 175, 176, 177, 178, 179, 180, 181, 182, 183, 184, 185, 186, 187, 188, 189, 190, 191, 192, 193, 194, 195, 196, 197, 198, 199, 200, 201, 202, 203, 204, 205, 206, 207, 208, 209, 210, 211, 212, 213, 214, 215, 216, 217, 218, 219, 220, 221, 222, 223, 224, 225, 226, 227, 228, 229, 230, 231, 232, 233, 234, 235, 236, 237, 238, 239, 240, 241, 242, 243, 244, 245, 246, 247, 248, 249, 250, 251, 252, 253, 254, 255, 256, 257, 258],
      "AcquisitionTime": ["160143.282500", "160145.290000", "160147.297500", "160149.305000", "160151.315000", "160153.322500", "160155.330000", "160157.337500", "160159.345000", "160201.355000", "160203.362500", "160205.370000", "160207.377500", "160209.385000", "160211.395000", "160213.402500", "160215.410000", "160217.417500", "160219.427500", "160221.435000", "160223.442500", "160225.450000", "160227.457500", "160229.467500", "160231.475000", "160233.482500", "160235.490000", "160237.497500", "160239.507500", "160241.515000", "160243.522500", "160245.530000", "160247.537500", "160249.547500", "160251.555000", "160253.562500", "160255.570000", "160257.580000", "160259.587500", "160301.595000", "160303.602500", "160305.610000", "160307.620000", "160309.627500", "160311.635000", "160313.642500", "160315.650000", "160317.660000", "160319.667500", "160321.675000", "160323.682500", "160325.692500", "160327.700000", "160329.707500", "160331.715000", "160333.722500", "160335.732500", "160337.740000", "160339.747500", "160341.755000", "160343.762500", "160345.772500", "160347.780000", "160349.787500", "160351.795000", "160353.805000", "160355.812500", "160357.820000", "160359.827500", "160401.835000", "160403.845000", "160405.852500", "160407.860000", "160409.867500", "160411.875000", "160413.885000", "160415.892500", "160417.900000", "160419.907500", "160421.915000", "160423.925000", "160425.932500", "160427.940000", "160429.947500", "160431.957500", "160433.965000", "160435.972500", "160437.980000", "160439.987500", "160441.997500", "160444.005000", "160446.012500", "160448.020000", "160450.027500", "160452.037500", "160454.045000", "160456.052500", "160458.060000", "160500.070000", "160502.077500", "160504.085000", "160506.092500", "160508.100000", "160510.110000", "160512.117500", "160514.125000", "160516.132500", "160518.140000", "160520.150000", "160522.157500", "160524.165000", "160526.172500", "160528.182500", "160530.190000", "160532.197500", "160534.205000", "160536.212500", "160538.222500", "160540.230000", "160542.237500", "160544.245000", "160546.252500", "160548.262500", "160550.270000", "160552.277500", "160554.285000", "160556.295000", "160558.302500", "160600.310000", "160602.317500", "160604.325000", "160606.335000", "160608.342500", "160610.350000", "160612.357500", "160614.365000", "160616.375000", "160618.382500", "160620.390000", "160622.397500", "160624.405000", "160626.415000", "160628.422500", "160630.430000", "160632.437500", "160634.447500", "160636.455000", "160638.462500", "160640.470000", "160642.477500", "160644.487500", "160646.495000", "160648.502500", "160650.510000", "160652.517500", "160654.527500", "160656.535000", "160658.542500", "160700.550000", "160702.560000", "160704.567500", "160706.575000", "160708.582500", "160710.590000", "160712.600000", "160714.607500", "160716.615000", "160718.622500", "160720.630000", "160722.640000", "160724.647500", "160726.655000", "160728.662500", "160730.672500", "160732.680000", "160734.687500", "160736.695000", "160738.702500", "160740.712500", "160742.720000", "160744.727500", "160746.735000", "160748.742500", "160750.752500", "160752.760000", "160754.767500", "160756.775000", "160758.782500", "160800.792500", "160802.800000", "160804.807500", "160806.815000", "160808.825000", "160810.832500", "160812.840000", "160814.847500", "160816.855000", "160818.865000", "160820.872500", "160822.880000", "160824.887500", "160826.895000", "160828.905000", "160830.912500", "160832.920000", "160834.927500", "160836.937500", "160838.945000", "160840.952500", "160842.960000", "160844.967500", "160846.977500", "160848.985000", "160850.992500", "160853.000000", "160855.007500", "160857.017500", "160859.025000", "160901.032500", "160903.040000", "160905.050000", "160907.057500", "160909.065000", "160911.072500", "160913.080000", "160915.090000", "160917.097500", "160919.105000", "160921.112500", "160923.120000", "160925.130000", "160927.137500", "160929.145000", "160931.152500", "160933.160000", "160935.170000", "160937.177500", "160939.185000", "160941.192500", "160943.202500", "160945.210000", "160947.217500", "160949.225000", "160951.232500", "160953.242500", "160955.250000", "160957.257500", "160959.265000", "161001.272500", "161003.282500", "161005.290000", "161007.297500", "161009.305000", "161011.315000", "161013.322500", "161015.330000", "161017.337500", "161019.345000"],
      "ContentTime": ["160217.593000", "160217.593000", "160217.593000", "160217.593000", "160217.593000", "160217.593000", "160217.593000", "160217.609000", "160217.609000", "160217.609000", "160217.609000", "160217.609000", "160217.609000", "160217.625000", "160217.625000", "160217.625000", "160217.625000", "160257.578000", "160257.593000", "160257.593000", "160257.593000", "160257.593000", "160257.593000", "160257.593000", "160257.593000", "160257.593000", "160257.609000", "160257.609000", "160257.609000", "160257.609000", "160257.609000", "160257.609000", "160257.609000", "160257.609000", "160257.625000", "160257.625000", "160257.625000", "160337.578000", "160337.578000", "160337.593000", "160337.593000", "160337.593000", "160337.593000", "160337.593000", "160337.593000", "160337.593000", "160337.609000", "160337.609000", "160337.609000", "160337.609000", "160337.609000", "160337.609000", "160337.609000", "160337.609000", "160337.625000", "160337.625000", "160337.625000", "160417.578000", "160417.578000", "160417.593000", "160417.593000", "160417.593000", "160417.593000", "160417.593000", "160417.593000", "160417.593000", "160417.609000", "160417.609000", "160417.609000", "160417.609000", "160417.609000", "160417.609000", "160417.625000", "160417.625000", "160417.625000", "160417.625000", "160417.625000", "160457.578000", "160457.578000", "160457.593000", "160457.593000", "160457.593000", "160457.593000", "160457.593000", "160457.593000", "160457.593000", "160457.609000", "160457.609000", "160457.609000", "160457.609000", "160457.609000", "160457.609000", "160457.609000", "160457.609000", "160457.625000", "160457.625000", "160457.625000", "160537.578000", "160537.593000", "160537.593000", "160537.593000", "160537.593000", "160537.593000", "160537.593000", "160537.593000", "160537.593000", "160537.609000", "160537.609000", "160537.609000", "160537.609000", "160537.609000", "160537.609000", "160537.609000", "160537.625000", "160537.625000", "160537.625000", "160537.625000", "160617.578000", "160617.578000", "160617.593000", "160617.593000", "160617.593000", "160617.593000", "160617.593000", "160617.593000", "160617.593000", "160617.609000", "160617.609000", "160617.609000", "160617.609000", "160617.609000", "160617.609000", "160617.609000", "160617.625000", "160617.625000", "160617.625000", "160617.625000", "160657.578000", "160657.593000", "160657.593000", "160657.593000", "160657.593000", "160657.593000", "160657.593000", "160657.593000", "160657.593000", "160657.609000", "160657.609000", "160657.609000", "160657.609000", "160657.609000", "160657.609000", "160657.609000", "160657.609000", "160657.625000", "160657.625000", "160657.625000", "160737.578000", "160737.578000", "160737.593000", "160737.593000", "160737.593000", "160737.593000", "160737.593000", "160737.593000", "160737.593000", "160737.609000", "160737.609000", "160737.609000", "160737.609000", "160737.609000", "160737.609000", "160737.609000", "160737.609000", "160737.625000", "160737.625000", "160737.625000", "160817.578000", "160817.578000", "160817.593000", "160817.593000", "160817.593000", "160817.593000", "160817.593000", "160817.593000", "160817.593000", "160817.609000", "160817.609000", "160817.609000", "160817.609000", "160817.609000", "160817.625000", "160817.625000", "160817.625000", "160817.625000", "160817.625000", "160817.625000", "160857.578000", "160857.578000", "160857.593000", "160857.593000", "160857.593000", "160857.593000", "160857.593000", "160857.593000", "160857.593000", "160857.609000", "160857.609000", "160857.609000", "160857.609000", "160857.609000", "160857.609000", "160857.609000", "160857.609000", "160857.625000", "160857.625000", "160857.625000", "160937.578000", "160937.578000", "160937.593000", "160937.593000", "160937.593000", "160937.593000", "160937.593000", "160937.593000", "160937.593000", "160937.609000", "160937.609000", "160937.609000", "160937.609000", "160937.609000", "160937.609000", "160937.609000", "160937.609000", "160937.625000", "160937.625000", "160937.625000", "161017.578000", "161017.578000", "161017.593000", "161017.593000", "161017.593000", "161017.593000", "161017.593000", "161017.593000", "161017.593000", "161017.609000", "161017.609000", "161017.609000", "161017.609000", "161017.609000", "161017.609000", "161017.609000", "161017.609000", "161017.625000", "161017.625000", "161017.625000", "161018.125000"],
      "InstanceCreationTime": ["160217.593000", "160217.593000", "160217.593000", "160217.593000", "160217.593000", "160217.593000", "160217.593000", "160217.609000", "160217.609000", "160217.609000", "160217.609000", "160217.609000", "160217.609000", "160217.625000", "160217.625000", "160217.625000", "160217.625000", "160257.578000", "160257.593000", "160257.593000", "160257.593000", "160257.593000", "160257.593000", "160257.593000", "160257.593000", "160257.593000", "160257.609000", "160257.609000", "160257.609000", "160257.609000", "160257.609000", "160257.609000", "160257.609000", "160257.609000", "160257.625000", "160257.625000", "160257.625000", "160337.578000", "160337.578000", "160337.593000", "160337.593000", "160337.593000", "160337.593000", "160337.593000", "160337.593000", "160337.593000", "160337.609000", "160337.609000", "160337.609000", "160337.609000", "160337.609000", "160337.609000", "160337.609000", "160337.609000", "160337.625000", "160337.625000", "160337.625000", "160417.578000", "160417.578000", "160417.593000", "160417.593000", "160417.593000", "160417.593000", "160417.593000", "160417.593000", "160417.593000", "160417.609000", "160417.609000", "160417.609000", "160417.609000", "160417.609000", "160417.609000", "160417.625000", "160417.625000", "160417.625000", "160417.625000", "160417.625000", "160457.578000", "160457.578000", "160457.593000", "160457.593000", "160457.593000", "160457.593000", "160457.593000", "160457.593000", "160457.593000", "160457.609000", "160457.609000", "160457.609000", "160457.609000", "160457.609000", "160457.609000", "160457.609000", "160457.609000", "160457.625000", "160457.625000", "160457.625000", "160537.578000", "160537.593000", "160537.593000", "160537.593000", "160537.593000", "160537.593000", "160537.593000", "160537.593000", "160537.593000", "160537.609000", "160537.609000", "160537.609000", "160537.609000", "160537.609000", "160537.609000", "160537.609000", "160537.625000", "160537.625000", "160537.625000", "160537.625000", "160617.578000", "160617.578000", "160617.593000", "160617.593000", "160617.593000", "160617.593000", "160617.593000", "160617.593000", "160617.593000", "160617.609000", "160617.609000", "160617.609000", "160617.609000", "160617.609000", "160617.609000", "160617.609000", "160617.625000", "160617.625000", "160617.625000", "160617.625000", "160657.578000", "160657.593000", "160657.593000", "160657.593000", "160657.593000", "160657.593000", "160657.593000", "160657.593000", "160657.593000", "160657.609000", "160657.609000", "160657.609000", "160657.609000", "160657.609000", "160657.609000", "160657.609000", "160657.609000", "160657.625000", "160657.625000", "160657.625000", "160737.578000", "160737.578000", "160737.593000", "160737.593000", "160737.593000", "160737.593000", "160737.593000", "160737.593000", "160737.593000", "160737.609000", "160737.609000", "160737.609000", "160737.609000", "160737.609000", "160737.609000", "160737.609000", "160737.609000", "160737.625000", "160737.625000", "160737.625000", "160817.578000", "160817.578000", "160817.593000", "160817.593000", "160817.593000", "160817.593000", "160817.593000", "160817.593000", "160817.593000", "160817.609000", "160817.609000", "160817.609000", "160817.609000", "160817.609000", "160817.625000", "160817.625000", "160817.625000", "160817.625000", "160817.625000", "160817.625000", "160857.578000", "160857.578000", "160857.593000", "160857.593000", "160857.593000", "160857.593000", "160857.593000", "160857.593000", "160857.593000", "160857.609000", "160857.609000", "160857.609000", "160857.609000", "160857.609000", "160857.609000", "160857.609000", "160857.609000", "160857.625000", "160857.625000", "160857.625000", "160937.578000", "160937.578000", "160937.593000", "160937.593000", "160937.593000", "160937.593000", "160937.593000", "160937.593000", "160937.593000", "160937.609000", "160937.609000", "160937.609000", "160937.609000", "160937.609000", "160937.609000", "160937.609000", "160937.609000", "160937.625000", "160937.625000", "160937.625000", "161017.578000", "161017.578000", "161017.593000", "161017.593000", "161017.593000", "161017.593000", "161017.593000", "161017.593000", "161017.593000", "161017.609000", "161017.609000", "161017.609000", "161017.609000", "161017.609000", "161017.609000", "161017.609000", "161017.609000", "161017.625000", "161017.625000", "161017.625000", "161018.125000"],
      "InstanceNumber": [1, 2, 3, 4, 5, 6, 7, 8, 9, 10, 11, 12, 13, 14, 15, 16, 17, 18, 19, 20, 21, 22, 23, 24, 25, 26, 27, 28, 29, 30, 31, 32, 33, 34, 35, 36, 37, 38, 39, 40, 41, 42, 43, 44, 45, 46, 47, 48, 49, 50, 51, 52, 53, 54, 55, 56, 57, 58, 59, 60, 61, 62, 63, 64, 65, 66, 67, 68, 69, 70, 71, 72, 73, 74, 75, 76, 77, 78, 79, 80, 81, 82, 83, 84, 85, 86, 87, 88, 89, 90, 91, 92, 93, 94, 95, 96, 97, 98, 99, 100, 101, 102, 103, 104, 105, 106, 107, 108, 109, 110, 111, 112, 113, 114, 115, 116, 117, 118, 119, 120, 121, 122, 123, 124, 125, 126, 127, 128, 129, 130, 131, 132, 133, 134, 135, 136, 137, 138, 139, 140, 141, 142, 143, 144, 145, 146, 147, 148, 149, 150, 151, 152, 153, 154, 155, 156, 157, 158, 159, 160, 161, 162, 163, 164, 165, 166, 167, 168, 169, 170, 171, 172, 173, 174, 175, 176, 177, 178, 179, 180, 181, 182, 183, 184, 185, 186, 187, 188, 189, 190, 191, 192, 193, 194, 195, 196, 197, 198, 199, 200, 201, 202, 203, 204, 205, 206, 207, 208, 209, 210, 211, 212, 213, 214, 215, 216, 217, 218, 219, 220, 221, 222, 223, 224, 225, 226, 227, 228, 229, 230, 231, 232, 233, 234, 235, 236, 237, 238, 239, 240, 241, 242, 243, 244, 245, 246, 247, 248, 249, 250, 251, 252, 253, 254, 255, 256, 257, 258],
      "LargestImagePixelValue": [2090, 1964, 1952, 1903, 1924, 1972, 1939, 1929, 1905, 1891, 1857, 1871, 1898, 1878, 1880, 1886, 1898, 1883, 1896, 1906, 1913, 1917, 1887, 1877, 1892, 1895, 1879, 1878, 1878, 1875, 1878, 1855, 1885, 1878, 1862, 1873, 1851, 1840, 1851, 1831, 1839, 1841, 1817, 1874, 1836, 1832, 1864, 1847, 1838, 1870, 1838, 1847, 1853, 1855, 1867, 1846, 1831, 1859, 1853, 1853, 1836, 1851, 1854, 1856, 1833, 1826, 1845, 1834, 2013, 1860, 1891, 1897, 1847, 1861, 1872, 1873, 1851, 1873, 1864, 1860, 1865, 1840, 1847, 1850, 1836, 1843, 1843, 1838, 1861, 1813, 1831, 1862, 1817, 1839, 1881, 1848, 1845, 1864, 1837, 1883, 1855, 1823, 1848, 1845, 1848, 1867, 1906, 1853, 1850, 1842, 1851, 1825, 1875, 1847, 1856, 1875, 1929, 1909, 1877, 1867, 1885, 1865, 1841, 1859, 1870, 1844, 1883, 1895, 1886, 1873, 1915, 1868, 1860, 1882, 1911, 1872, 1873, 1861, 1870, 1843, 1858, 1860, 1869, 1882, 1965, 1935, 1872, 1876, 1881, 1890, 1879, 2003, 1951, 1846, 1917, 1892, 1890, 1888, 1873, 1898, 1899, 1918, 1892, 1866, 1882, 1889, 1876, 1888, 1861, 1897, 1893, 1919, 1871, 1877, 1871, 1901, 1909, 1875, 1899, 1915, 2235, 1920, 1963, 1860, 1832, 1903, 1871, 1878, 1909, 1910, 1889, 1874, 1883, 1903, 1918, 1926, 1896, 1916, 1877, 1888, 1888, 1892, 1883, 1887, 1868, 1985, 2069, 1891, 1848, 1877, 1880, 1870, 1897, 1900, 1893, 1902, 1902, 1892, 1872, 1882, 1976, 1987, 1933, 1972, 1981, 1998, 2013, 2002, 2012, 2037, 2037, 2027, 2066, 1999, 2003, 2010, 2035, 1984, 2020, 2034, 2056, 2017, 2012, 2015, 1980, 2071, 2017, 2005, 2047, 1985, 1980, 2025, 2026, 1986, 2017, 2032, 2021, 2066],
      "WindowCenter": [818.0, 808.0, 807.0, 806.0, 808.0, 822.0, 813.0, 803.0, 804.0, 803.0, 801.0, 804.0, 806.0, 804.0, 804.0, 804.0, 805.0, 804.0, 806.0, 805.0, 804.0, 806.0, 807.0, 805.0, 805.0, 805.0, 803.0, 803.0, 805.0, 803.0, 803.0, 804.0, 804.0, 804.0, 811.0, 807.0, 805.0, 805.0, 805.0, 804.0, 803.0, 804.0, 802.0, 804.0, 804.0, 804.0, 804.0, 804.0, 804.0, 804.0, 805.0, 805.0, 804.0, 805.0, 804.0, 804.0, 805.0, 804.0, 804.0, 805.0, 805.0, 805.0, 806.0, 804.0, 805.0, 805.0, 805.0, 806.0, 815.0, 813.0, 810.0, 809.0, 807.0, 808.0, 806.0, 806.0, 807.0, 807.0, 808.0, 808.0, 807.0, 808.0, 808.0, 807.0, 807.0, 808.0, 806.0, 807.0, 808.0, 807.0, 807.0, 808.0, 807.0, 807.0, 807.0, 805.0, 807.0, 807.0, 807.0, 807.0, 807.0, 806.0, 807.0, 807.0, 807.0, 807.0, 808.0, 807.0, 807.0, 807.0, 807.0, 807.0, 808.0, 806.0, 808.0, 814.0, 811.0, 814.0, 808.0, 803.0, 803.0, 802.0, 801.0, 801.0, 802.0, 801.0, 802.0, 803.0, 803.0, 809.0, 805.0, 801.0, 801.0, 802.0, 802.0, 803.0, 803.0, 802.0, 802.0, 802.0, 803.0, 802.0, 802.0, 804.0, 810.0, 804.0, 801.0, 802.0, 802.0, 804.0, 804.0, 809.0, 816.0, 808.0, 809.0, 806.0, 805.0, 806.0, 805.0, 809.0, 809.0, 809.0, 809.0, 807.0, 807.0, 807.0, 808.0, 807.0, 808.0, 808.0, 808.0, 809.0, 808.0, 808.0, 808.0, 808.0, 808.0, 807.0, 808.0, 809.0, 814.0, 814.0, 827.0, 810.0, 804.0, 805.0, 805.0, 806.0, 808.0, 808.0, 805.0, 806.0, 806.0, 809.0, 810.0, 807.0, 805.0, 806.0, 806.0, 805.0, 805.0, 806.0, 805.0, 805.0, 805.0, 812.0, 820.0, 811.0, 808.0, 806.0, 806.0, 806.0, 805.0, 806.0, 806.0, 807.0, 808.0, 808.0, 807.0, 809.0, 808.0, 812.0, 805.0, 805.0, 805.0, 805.0, 806.0, 807.0, 807.0, 807.0, 806.0, 808.0, 806.0, 806.0, 807.0, 807.0, 807.0, 806.0, 805.0, 806.0, 807.0, 805.0, 806.0, 805.0, 808.0, 812.0, 811.0, 807.0, 804.0, 800.0, 802.0, 802.0, 802.0, 804.0, 804.0, 804.0, 805.0, 813.0],
      "WindowWidth": [1723.0, 1695.0, 1692.0, 1689.0, 1695.0, 1729.0, 1709.0, 1681.0, 1684.0, 1682.0, 1677.0, 1684.0, 1689.0, 1684.0, 1686.0, 1685.0, 1686.0, 1685.0, 1690.0, 1687.0, 1684.0, 1688.0, 1692.0, 1687.0, 1688.0, 1688.0, 1683.0, 1682.0, 1687.0, 1681.0, 1682.0, 1685.0, 1686.0, 1685.0, 1704.0, 1696.0, 1689.0, 1689.0, 1688.0, 1685.0, 1684.0, 1685.0, 1680.0, 1686.0, 1685.0, 1684.0, 1684.0, 1685.0, 1686.0, 1686.0, 1688.0, 1686.0, 1686.0, 1687.0, 1685.0, 1687.0, 1687.0, 1686.0, 1686.0, 1689.0, 1688.0, 1689.0, 1690.0, 1686.0, 1687.0, 1688.0, 1687.0, 1690.0, 1716.0, 1710.0, 1700.0, 1697.0, 1692.0, 1694.0, 1689.0, 1690.0, 1693.0, 1693.0, 1696.0, 1694.0, 1693.0, 1696.0, 1695.0, 1693.0, 1694.0, 1694.0, 1690.0, 1692.0, 1696.0, 1692.0, 1694.0, 1695.0, 1693.0, 1693.0, 1695.0, 1689.0, 1693.0, 1694.0, 1692.0, 1694.0, 1694.0, 1691.0, 1694.0, 1695.0, 1694.0, 1695.0, 1698.0, 1694.0, 1694.0, 1694.0, 1694.0, 1693.0, 1696.0, 1692.0, 1696.0, 1710.0, 1706.0, 1710.0, 1702.0, 1689.0, 1686.0, 1686.0, 1682.0, 1681.0, 1685.0, 1682.0, 1684.0, 1686.0, 1685.0, 1702.0, 1696.0, 1683.0, 1684.0, 1685.0, 1684.0, 1686.0, 1687.0, 1684.0, 1686.0, 1683.0, 1685.0, 1684.0, 1685.0, 1690.0, 1709.0, 1693.0, 1683.0, 1684.0, 1685.0, 1690.0, 1689.0, 1703.0, 1717.0, 1697.0, 1698.0, 1692.0, 1689.0, 1691.0, 1688.0, 1700.0, 1699.0, 1698.0, 1699.0, 1694.0, 1694.0, 1694.0, 1696.0, 1694.0, 1696.0, 1696.0, 1696.0, 1702.0, 1697.0, 1696.0, 1698.0, 1697.0, 1696.0, 1696.0, 1699.0, 1699.0, 1714.0, 1715.0, 1743.0, 1704.0, 1689.0, 1691.0, 1691.0, 1693.0, 1698.0, 1699.0, 1692.0, 1693.0, 1694.0, 1701.0, 1707.0, 1696.0, 1691.0, 1692.0, 1692.0, 1691.0, 1692.0, 1693.0, 1689.0, 1690.0, 1691.0, 1710.0, 1725.0, 1706.0, 1698.0, 1692.0, 1693.0, 1693.0, 1692.0, 1694.0, 1693.0, 1698.0, 1700.0, 1699.0, 1696.0, 1697.0, 1712.0, 1713.0, 1693.0, 1694.0, 1693.0, 1693.0, 1696.0, 1698.0, 1699.0, 1699.0, 1696.0, 1702.0, 1697.0, 1697.0, 1699.0, 1698.0, 1699.0, 1695.0, 1694.0, 1698.0, 1699.0, 1693.0, 1697.0, 1694.0, 1701.0, 1717.0, 1717.0, 1701.0, 1691.0, 1681.0, 1686.0, 1685.0, 1687.0, 1691.0, 1691.0, 1693.0, 1694.0, 1716.0]
    },
    "slices": {}
  }
}