{
  "aor": 0.0011320155038759688,
  "aqi": 0.011014207829457365,
  "bids_meta": {
    "AcquisitionMatrixPE": 68,
    "AcquisitionNumber": 1,
    "AcquisitionTime": "11:50:30.640000",
    "BandwidthPerPixelPhaseEncode": 31.289,
    "BaseResolution": 68,
    "CogAtlasID": "TODO",
    "CoilString": "C:HEA;HEP",
    "ConversionSoftware": "dcm2niix",
    "ConversionSoftwareVersion": "v1.0.20190902",
    "DerivedVendorReportedEchoSpacing": 0.000470002,
    "DeviceSerialNumber": "35450",
    "DwellTime": 3e-06,
    "EchoTime": 0.023,
    "EffectiveEchoSpacing": 0.000470002,
    "FlipAngle": 76,
    "ImageOrientationPatientDICOM": [
      0.999962,
      -0.00175471,
      -0.0085483,
      7.97262e-10,
      0.979575,
      -0.201078
    ],
    "ImageType": [
      "ORIGINAL",
      "PRIMARY",
      "M",
      "ND",
      "MOSAIC"
    ],
    "ImagingFrequency": 123.218,
    "InPlanePhaseEncodingDirectionDICOM": "COL",
    "InstitutionAddress": "Univeristy_Ave._197_Newark_North_East_US_07102-1814",
    "InstitutionName": "RUBIC",
    "InstitutionalDepartmentName": "Department",
    "MRAcquisitionType": "2D",
    "MagneticFieldStrength": 3,
    "Manufacturer": "Siemens",
    "ManufacturersModelName": "TrioTim",
    "Modality": "MR",
    "PartialFourier": 1,
    "PatientPosition": "HFS",
    "PercentPhaseFOV": 100,
    "PhaseEncodingDirection": "j-",
    "PhaseEncodingSteps": 68,
    "PhaseResolution": 1,
    "PixelBandwidth": 2451,
    "ProcedureStepDescription": "Krekelberg_David",
    "ProtocolName": "ep2d_bold_CardGameEPI_1",
    "PulseSequenceDetails": "%SiemensSeq%_ep2d_bold",
    "ReceiveCoilName": "HeadMatrix",
    "ReconMatrixPE": 68,
    "RepetitionTime": 2,
    "SAR": 0.174842,
    "ScanOptions": "FS",
    "ScanningSequence": "EP",
    "SequenceName": "_epfid2d1_68",
    "SequenceVariant": "SK",
    "SeriesDescription": "ep2d_bold_CardGameEPI_1",
    "SeriesNumber": 5,
    "ShimSetting": [
      1928,
      -532,
      -7516,
      944,
      40,
      320,
      -270,
      3
    ],
    "SliceThickness": 2.5,
    "SliceTiming": [
      1.9525,
      1.895,
      1.84,
      1.785,
      1.73,
      1.6725,
      1.6175,
      1.5625,
      1.505,
      1.45,
      1.395,
      1.3375,
      1.2825,
      1.2275,
      1.1725,
      1.115,
      1.06,
      1.005,
      0.9475,
      0.8925,
      0.8375,
      0.78,
      0.725,
      0.67,
      0.6125,
      0.5575,
      0.5025,
      0.4475,
      0.39,
      0.335,
      0.28,
      0.2225,
      0.1675,
      0.1125,
      0.055,
      0
    ],
    "SoftwareVersions": "syngo_MR_B19",
    "SpacingBetweenSlices": 3,
    "StationName": "MRC35450",
    "TaskName": "cardgame",
    "TotalReadoutTime": 0.0314901,
    "TxRefAmp": 355.767,
    "dataset": "<unset>",
    "dcmmeta_affine": [
      [
        -2.9998857975006104,
        2.3917861025068987e-09,
        -0.026179609820246696,
        101.09832763671875
      ],
      [
        0.00526414392516017,
        2.938725709915161,
        -0.6032108068466187,
        -68.29327392578125
      ],
      [
        -0.025644896551966667,
        0.6032337546348572,
        2.9386138916015625,
        -41.30774688720703
      ],
      [
        0.0,
        0.0,
        0.0,
        1.0
      ]
    ],
    "dcmmeta_reorient_transform": [
      [
        0.0,
        -1.0,
        0.0,
        67.0
      ],
      [
        1.0,
        0.0,
        0.0,
        0.0
      ],
      [
        0.0,
        0.0,
        1.0,
        0.0
      ],
      [
        0.0,
        0.0,
        0.0,
        1.0
      ]
    ],
    "dcmmeta_shape": [
      68,
      68,
      36,
      258
    ],
    "dcmmeta_slice_dim": 2,
    "dcmmeta_version": 0.6,
    "global": {
      "const": {
        "AcquisitionMatrix": [
          68,
          0,
          0,
          68
        ],
        "AngioFlag": "N",
        "BitsAllocated": 16,
        "BitsStored": 12,
        "Columns": 408,
        "EchoNumbers": 1,
        "EchoTime": 23.0,
        "EchoTrainLength": 1,
        "FlipAngle": 76.0,
        "HighBit": 11,
        "ImageOrientationPatient": [
          0.99996192305518,
          -0.0017547146441,
          -0.00854829903,
          7.97262e-10,
          0.97957524867894,
          -0.2010779256298
        ],
        "ImagePositionPatient": [
          -611.07890827702,
          -627.28982001231,
          106.01829264366
        ],
        "ImageType": [
          "ORIGINAL",
          "PRIMARY",
          "M",
          "ND",
          "MOSAIC"
        ],
        "ImagedNucleus": "1H",
        "ImagingFrequency": 123.218459,
        "InPlanePhaseEncodingDirection": "COL",
        "MRAcquisitionType": "2D",
        "MagneticFieldStrength": 3.0,
        "Manufacturer": "SIEMENS",
        "ManufacturerModelName": "TrioTim",
        "Modality": "MR",
        "NumberOfAverages": 1.0,
        "NumberOfPhaseEncodingSteps": 68,
        "PercentPhaseFieldOfView": 100.0,
        "PercentSampling": 100.0,
        "PerformedProcedureStepStartTime": "113039.203000",
        "PhotometricInterpretation": "MONOCHROME2",
        "PixelBandwidth": 2451.0,
        "PixelRepresentation": 0,
        "PixelSpacing": [
          3.0,
          3.0
        ],
        "ProtocolName": "ep2d_bold_CardGameEPI_1",
        "RepetitionTime": 2000.0,
        "Rows": 408,
        "SAR": 0.17484156027269,
        "SamplesPerPixel": 1,
        "ScanOptions": "FS",
        "ScanningSequence": "EP",
        "SequenceName": "*epfid2d1_68",
        "SequenceVariant": "SK",
        "SeriesDescription": "ep2d_bold_CardGameEPI_1",
        "SeriesNumber": 5,
        "SeriesTime": "115115.625000",
        "SliceLocation": -27.612994404918,
        "SliceThickness": 2.5,
        "SmallestImagePixelValue": 0,
        "SoftwareVersions": "syngo MR B19",
        "SpacingBetweenSlices": 3.0000000387776,
        "SpecificCharacterSet": "ISO_IR 100",
        "StudyID": "1",
        "StudyTime": "113039.156000",
        "TransmitCoilName": "Body",
        "VariableFlipAngleFlag": "N",
        "WindowCenterWidthExplanation": "Algo1",
        "dBdt": 0.0
      },
      "slices": {}
    },
    "modality": "bold",
    "run_id": 1,
    "subject_id": "227",
    "task_id": "cardgame",
    "time": {
      "samples": {
        "AcquisitionNumber": [
          1,
          2,
          3,
          4,
          5,
          6,
          7,
          8,
          9,
          10,
          11,
          12,
          13,
          14,
          15,
          16,
          17,
          18,
          19,
          20,
          21,
          22,
          23,
          24,
          25,
          26,
          27,
          28,
          29,
          30,
          31,
          32,
          33,
          34,
          35,
          36,
          37,
          38,
          39,
          40,
          41,
          42,
          43,
          44,
          45,
          46,
          47,
          48,
          49,
          50,
          51,
          52,
          53,
          54,
          55,
          56,
          57,
          58,
          59,
          60,
          61,
          62,
          63,
          64,
          65,
          66,
          67,
          68,
          69,
          70,
          71,
          72,
          73,
          74,
          75,
          76,
          77,
          78,
          79,
          80,
          81,
          82,
          83,
          84,
          85,
          86,
          87,
          88,
          89,
          90,
          91,
          92,
          93,
          94,
          95,
          96,
          97,
          98,
          99,
          100,
          101,
          102,
          103,
          104,
          105,
          106,
          107,
          108,
          109,
          110,
          111,
          112,
          113,
          114,
          115,
          116,
          117,
          118,
          119,
          120,
          121,
          122,
          123,
          124,
          125,
          126,
          127,
          128,
          129,
          130,
          131,
          132,
          133,
          134,
          135,
          136,
          137,
          138,
          139,
          140,
          141,
          142,
          143,
          144,
          145,
          146,
          147,
          148,
          149,
          150,
          151,
          152,
          153,
          154,
          155,
          156,
          157,
          158,
          159,
          160,
          161,
          162,
          163,
          164,
          165,
          166,
          167,
          168,
          169,
          170,
          171,
          172,
          173,
          174,
          175,
          176,
          177,
          178,
          179,
          180,
          181,
          182,
          183,
          184,
          185,
          186,
          187,
          188,
          189,
          190,
          191,
          192,
          193,
          194,
          195,
          196,
          197,
          198,
          199,
          200,
          201,
          202,
          203,
          204,
          205,
          206,
          207,
          208,
          209,
          210,
          211,
          212,
          213,
          214,
          215,
          216,
          217,
          218,
          219,
          220,
          221,
          222,
          223,
          224,
          225,
          226,
          227,
          228,
          229,
          230,
          231,
          232,
          233,
          234,
          235,
          236,
          237,
          238,
          239,
          240,
          241,
          242,
          243,
          244,
          245,
          246,
          247,
          248,
          249,
          250,
          251,
          252,
          253,
          254,
          255,
          256,
          257,
          258
        ],
        "AcquisitionTime": [
          "115030.640000",
          "115032.647500",
          "115034.655000",
          "115036.662500",
          "115038.672500",
          "115040.680000",
          "115042.687500",
          "115044.695000",
          "115046.705000",
          "115048.712500",
          "115050.720000",
          "115052.727500",
          "115054.735000",
          "115056.745000",
          "115058.752500",
          "115100.760000",
          "115102.767500",
          "115104.775000",
          "115106.785000",
          "115108.792500",
          "115110.800000",
          "115112.807500",
          "115114.815000",
          "115116.825000",
          "115118.832500",
          "115120.840000",
          "115122.847500",
          "115124.857500",
          "115126.865000",
          "115128.872500",
          "115130.880000",
          "115132.887500",
          "115134.897500",
          "115136.905000",
          "115138.912500",
          "115140.920000",
          "115142.927500",
          "115144.937500",
          "115146.945000",
          "115148.952500",
          "115150.960000",
          "115152.970000",
          "115154.977500",
          "115156.985000",
          "115158.992500",
          "115201.000000",
          "115203.010000",
          "115205.017500",
          "115207.025000",
          "115209.032500",
          "115211.040000",
          "115213.050000",
          "115215.057500",
          "115217.065000",
          "115219.072500",
          "115221.082500",
          "115223.090000",
          "115225.097500",
          "115227.105000",
          "115229.112500",
          "115231.122500",
          "115233.130000",
          "115235.137500",
          "115237.145000",
          "115239.152500",
          "115241.162500",
          "115243.170000",
          "115245.177500",
          "115247.185000",
          "115249.192500",
          "115251.202500",
          "115253.210000",
          "115255.217500",
          "115257.225000",
          "115259.235000",
          "115301.242500",
          "115303.250000",
          "115305.257500",
          "115307.265000",
          "115309.275000",
          "115311.282500",
          "115313.290000",
          "115315.297500",
          "115317.305000",
          "115319.315000",
          "115321.322500",
          "115323.330000",
          "115325.337500",
          "115327.347500",
          "115329.355000",
          "115331.362500",
          "115333.370000",
          "115335.377500",
          "115337.387500",
          "115339.395000",
          "115341.402500",
          "115343.410000",
          "115345.417500",
          "115347.427500",
          "115349.435000",
          "115351.442500",
          "115353.450000",
          "115355.460000",
          "115357.467500",
          "115359.475000",
          "115401.482500",
          "115403.490000",
          "115405.500000",
          "115407.507500",
          "115409.515000",
          "115411.522500",
          "115413.530000",
          "115415.540000",
          "115417.547500",
          "115419.555000",
          "115421.562500",
          "115423.570000",
          "115425.580000",
          "115427.587500",
          "115429.595000",
          "115431.602500",
          "115433.612500",
          "115435.620000",
          "115437.627500",
          "115439.635000",
          "115441.642500",
          "115443.652500",
          "115445.660000",
          "115447.667500",
          "115449.675000",
          "115451.682500",
          "115453.692500",
          "115455.700000",
          "115457.707500",
          "115459.715000",
          "115501.725000",
          "115503.732500",
          "115505.740000",
          "115507.747500",
          "115509.755000",
          "115511.765000",
          "115513.772500",
          "115515.780000",
          "115517.787500",
          "115519.795000",
          "115521.805000",
          "115523.812500",
          "115525.820000",
          "115527.827500",
          "115529.837500",
          "115531.845000",
          "115533.852500",
          "115535.860000",
          "115537.867500",
          "115539.877500",
          "115541.885000",
          "115543.892500",
          "115545.900000",
          "115547.907500",
          "115549.917500",
          "115551.925000",
          "115553.932500",
          "115555.940000",
          "115557.947500",
          "115559.957500",
          "115601.965000",
          "115603.972500",
          "115605.980000",
          "115607.990000",
          "115609.997500",
          "115612.005000",
          "115614.012500",
          "115616.020000",
          "115618.030000",
          "115620.037500",
          "115622.045000",
          "115624.052500",
          "115626.060000",
          "115628.070000",
          "115630.077500",
          "115632.085000",
          "115634.092500",
          "115636.102500",
          "115638.110000",
          "115640.117500",
          "115642.125000",
          "115644.132500",
          "115646.142500",
          "115648.150000",
          "115650.157500",
          "115652.165000",
          "115654.172500",
          "115656.182500",
          "115658.190000",
          "115700.197500",
          "115702.205000",
          "115704.215000",
          "115706.222500",
          "115708.230000",
          "115710.237500",
          "115712.245000",
          "115714.255000",
          "115716.262500",
          "115718.270000",
          "115720.277500",
          "115722.285000",
          "115724.295000",
          "115726.302500",
          "115728.310000",
          "115730.317500",
          "115732.325000",
          "115734.335000",
          "115736.342500",
          "115738.350000",
          "115740.357500",
          "115742.367500",
          "115744.375000",
          "115746.382500",
          "115748.390000",
          "115750.397500",
          "115752.407500",
          "115754.415000",
          "115756.422500",
          "115758.430000",
          "115800.437500",
          "115802.447500",
          "115804.455000",
          "115806.462500",
          "115808.470000",
          "115810.480000",
          "115812.487500",
          "115814.495000",
          "115816.502500",
          "115818.510000",
          "115820.520000",
          "115822.527500",
          "115824.535000",
          "115826.542500",
          "115828.550000",
          "115830.560000",
          "115832.567500",
          "115834.575000",
          "115836.582500",
          "115838.592500",
          "115840.600000",
          "115842.607500",
          "115844.615000",
          "115846.622500",
          "115848.632500",
          "115850.640000",
          "115852.647500",
          "115854.655000",
          "115856.662500",
          "115858.672500",
          "115900.680000",
          "115902.687500",
          "115904.695000",
          "115906.705000"
        ],
        "ContentTime": [
          "115115.625000",
          "115115.625000",
          "115115.625000",
          "115115.625000",
          "115115.625000",
          "115115.625000",
          "115115.640000",
          "115115.640000",
          "115115.640000",
          "115115.640000",
          "115115.640000",
          "115115.640000",
          "115115.640000",
          "115115.656000",
          "115115.656000",
          "115115.656000",
          "115115.656000",
          "115115.656000",
          "115115.656000",
          "115115.656000",
          "115115.656000",
          "115115.671000",
          "115115.671000",
          "115155.609000",
          "115155.625000",
          "115155.625000",
          "115155.625000",
          "115155.625000",
          "115155.625000",
          "115155.625000",
          "115155.625000",
          "115155.640000",
          "115155.640000",
          "115155.640000",
          "115155.640000",
          "115155.640000",
          "115155.640000",
          "115155.640000",
          "115155.640000",
          "115155.656000",
          "115155.656000",
          "115155.656000",
          "115155.656000",
          "115235.609000",
          "115235.625000",
          "115235.625000",
          "115235.625000",
          "115235.625000",
          "115235.625000",
          "115235.625000",
          "115235.640000",
          "115235.640000",
          "115235.640000",
          "115235.640000",
          "115235.640000",
          "115235.656000",
          "115235.656000",
          "115235.656000",
          "115235.656000",
          "115235.656000",
          "115235.656000",
          "115235.671000",
          "115235.671000",
          "115315.609000",
          "115315.625000",
          "115315.625000",
          "115315.625000",
          "115315.625000",
          "115315.625000",
          "115315.625000",
          "115315.625000",
          "115315.640000",
          "115315.640000",
          "115315.640000",
          "115315.640000",
          "115315.640000",
          "115315.640000",
          "115315.640000",
          "115315.640000",
          "115315.656000",
          "115315.656000",
          "115315.656000",
          "115315.656000",
          "115355.609000",
          "115355.625000",
          "115355.625000",
          "115355.625000",
          "115355.625000",
          "115355.625000",
          "115355.625000",
          "115355.625000",
          "115355.640000",
          "115355.640000",
          "115355.640000",
          "115355.640000",
          "115355.640000",
          "115355.640000",
          "115355.640000",
          "115355.656000",
          "115355.656000",
          "115355.656000",
          "115355.656000",
          "115355.656000",
          "115415.609000",
          "115415.625000",
          "115415.625000",
          "115415.625000",
          "115415.625000",
          "115415.625000",
          "115415.625000",
          "115415.625000",
          "115415.640000",
          "115415.640000",
          "115455.609000",
          "115455.625000",
          "115455.625000",
          "115455.625000",
          "115455.625000",
          "115455.625000",
          "115455.625000",
          "115455.625000",
          "115455.640000",
          "115455.640000",
          "115455.640000",
          "115455.640000",
          "115455.640000",
          "115455.640000",
          "115455.640000",
          "115455.656000",
          "115455.656000",
          "115455.656000",
          "115455.656000",
          "115455.656000",
          "115535.609000",
          "115535.625000",
          "115535.625000",
          "115535.625000",
          "115535.625000",
          "115535.625000",
          "115535.625000",
          "115535.625000",
          "115535.640000",
          "115535.640000",
          "115535.640000",
          "115535.640000",
          "115535.640000",
          "115535.640000",
          "115535.640000",
          "115535.640000",
          "115535.656000",
          "115535.656000",
          "115535.656000",
          "115535.656000",
          "115615.609000",
          "115615.625000",
          "115615.625000",
          "115615.625000",
          "115615.625000",
          "115615.625000",
          "115615.625000",
          "115615.625000",
          "115615.640000",
          "115615.640000",
          "115615.640000",
          "115615.640000",
          "115615.640000",
          "115615.640000",
          "115615.640000",
          "115615.656000",
          "115615.656000",
          "115615.671000",
          "115615.671000",
          "115615.671000",
          "115655.609000",
          "115655.625000",
          "115655.625000",
          "115655.625000",
          "115655.625000",
          "115655.625000",
          "115655.625000",
          "115655.625000",
          "115655.640000",
          "115655.640000",
          "115655.640000",
          "115655.640000",
          "115655.640000",
          "115655.656000",
          "115655.656000",
          "115655.656000",
          "115655.656000",
          "115655.656000",
          "115655.656000",
          "115655.656000",
          "115735.609000",
          "115735.625000",
          "115735.625000",
          "115735.625000",
          "115735.625000",
          "115735.625000",
          "115735.625000",
          "115735.625000",
          "115735.640000",
          "115735.640000",
          "115735.640000",
          "115735.640000",
          "115735.640000",
          "115735.640000",
          "115735.640000",
          "115735.640000",
          "115735.656000",
          "115735.656000",
          "115735.656000",
          "115735.656000",
          "115815.609000",
          "115815.625000",
          "115815.625000",
          "115815.625000",
          "115815.625000",
          "115815.625000",
          "115815.625000",
          "115815.625000",
          "115815.625000",
          "115815.640000",
          "115815.640000",
          "115815.640000",
          "115815.640000",
          "115815.640000",
          "115815.640000",
          "115815.640000",
          "115815.656000",
          "115815.656000",
          "115815.656000",
          "115815.656000",
          "115855.609000",
          "115855.625000",
          "115855.625000",
          "115855.625000",
          "115855.625000",
          "115855.625000",
          "115855.625000",
          "115855.625000",
          "115855.640000",
          "115855.640000",
          "115855.640000",
          "115855.640000",
          "115855.640000",
          "115855.640000",
          "115855.640000",
          "115855.656000",
          "115855.656000",
          "115855.656000",
          "115855.656000",
          "115855.656000",
          "115905.281000",
          "115905.281000",
          "115905.281000",
          "115905.281000",
          "115905.296000"
        ],
        "InstanceCreationTime": [
          "115115.625000",
          "115115.625000",
          "115115.625000",
          "115115.625000",
          "115115.625000",
          "115115.625000",
          "115115.640000",
          "115115.640000",
          "115115.640000",
          "115115.640000",
          "115115.640000",
          "115115.640000",
          "115115.640000",
          "115115.656000",
          "115115.656000",
          "115115.656000",
          "115115.656000",
          "115115.656000",
          "115115.656000",
          "115115.656000",
          "115115.656000",
          "115115.671000",
          "115115.671000",
          "115155.609000",
          "115155.625000",
          "115155.625000",
          "115155.625000",
          "115155.625000",
          "115155.625000",
          "115155.625000",
          "115155.625000",
          "115155.640000",
          "115155.640000",
          "115155.640000",
          "115155.640000",
          "115155.640000",
          "115155.640000",
          "115155.640000",
          "115155.640000",
          "115155.656000",
          "115155.656000",
          "115155.656000",
          "115155.656000",
          "115235.609000",
          "115235.625000",
          "115235.625000",
          "115235.625000",
          "115235.625000",
          "115235.625000",
          "115235.625000",
          "115235.640000",
          "115235.640000",
          "115235.640000",
          "115235.640000",
          "115235.640000",
          "115235.656000",
          "115235.656000",
          "115235.656000",
          "115235.656000",
          "115235.656000",
          "115235.656000",
          "115235.671000",
          "115235.671000",
          "115315.609000",
          "115315.625000",
          "115315.625000",
          "115315.625000",
          "115315.625000",
          "115315.625000",
          "115315.625000",
          "115315.625000",
          "115315.640000",
          "115315.640000",
          "115315.640000",
          "115315.640000",
          "115315.640000",
          "115315.640000",
          "115315.640000",
          "115315.640000",
          "115315.656000",
          "115315.656000",
          "115315.656000",
          "115315.656000",
          "115355.609000",
          "115355.625000",
          "115355.625000",
          "115355.625000",
          "115355.625000",
          "115355.625000",
          "115355.625000",
          "115355.625000",
          "115355.640000",
          "115355.640000",
          "115355.640000",
          "115355.640000",
          "115355.640000",
          "115355.640000",
          "115355.640000",
          "115355.656000",
          "115355.656000",
          "115355.656000",
          "115355.656000",
          "115355.656000",
          "115415.609000",
          "115415.625000",
          "115415.625000",
          "115415.625000",
          "115415.625000",
          "115415.625000",
          "115415.625000",
          "115415.625000",
          "115415.640000",
          "115415.640000",
          "115455.609000",
          "115455.625000",
          "115455.625000",
          "115455.625000",
          "115455.625000",
          "115455.625000",
          "115455.625000",
          "115455.625000",
          "115455.640000",
          "115455.640000",
          "115455.640000",
          "115455.640000",
          "115455.640000",
          "115455.640000",
          "115455.640000",
          "115455.656000",
          "115455.656000",
          "115455.656000",
          "115455.656000",
          "115455.656000",
          "115535.609000",
          "115535.625000",
          "115535.625000",
          "115535.625000",
          "115535.625000",
          "115535.625000",
          "115535.625000",
          "115535.625000",
          "115535.640000",
          "115535.640000",
          "115535.640000",
          "115535.640000",
          "115535.640000",
          "115535.640000",
          "115535.640000",
          "115535.640000",
          "115535.656000",
          "115535.656000",
          "115535.656000",
          "115535.656000",
          "115615.609000",
          "115615.625000",
          "115615.625000",
          "115615.625000",
          "115615.625000",
          "115615.625000",
          "115615.625000",
          "115615.625000",
          "115615.640000",
          "115615.640000",
          "115615.640000",
          "115615.640000",
          "115615.640000",
          "115615.640000",
          "115615.640000",
          "115615.656000",
          "115615.656000",
          "115615.671000",
          "115615.671000",
          "115615.671000",
          "115655.609000",
          "115655.625000",
          "115655.625000",
          "115655.625000",
          "115655.625000",
          "115655.625000",
          "115655.625000",
          "115655.625000",
          "115655.640000",
          "115655.640000",
          "115655.640000",
          "115655.640000",
          "115655.640000",
          "115655.656000",
          "115655.656000",
          "115655.656000",
          "115655.656000",
          "115655.656000",
          "115655.656000",
          "115655.656000",
          "115735.609000",
          "115735.625000",
          "115735.625000",
          "115735.625000",
          "115735.625000",
          "115735.625000",
          "115735.625000",
          "115735.625000",
          "115735.640000",
          "115735.640000",
          "115735.640000",
          "115735.640000",
          "115735.640000",
          "115735.640000",
          "115735.640000",
          "115735.640000",
          "115735.656000",
          "115735.656000",
          "115735.656000",
          "115735.656000",
          "115815.609000",
          "115815.625000",
          "115815.625000",
          "115815.625000",
          "115815.625000",
