{
  "aor": 0.002649688715953308,
  "aqi": 0.018222467898832688,
  "bids_meta": {
    "AcquisitionMatrixPE": 68,
    "AcquisitionNumber": 1,
    "AcquisitionTime": "12:09:7.587500",
    "BandwidthPerPixelPhaseEncode": 31.289,
    "BaseResolution": 68,
    "CogAtlasID": "TODO",
    "CoilString": "C:HEA;HEP",
    "ConversionSoftware": "dcm2niix",
    "ConversionSoftwareVersion": "v1.0.20190902",
    "DerivedVendorReportedEchoSpacing": 0.000470002,
    "DeviceSerialNumber": "35450",
    "DwellTime": 3e-06,
    "EchoTime": 0.023,
    "EffectiveEchoSpacing": 0.000470002,
    "FlipAngle": 76,
    "ImageOrientationPatientDICOM": [
      0.999962,
      -0.00175471,
      -0.0085483,
      7.97262e-10,
      0.979575,
      -0.201078
    ],
    "ImageType": [
      "ORIGINAL",
      "PRIMARY",
      "M",
      "ND",
      "MOSAIC"
    ],
    "ImagingFrequency": 123.218,
    "InPlanePhaseEncodingDirectionDICOM": "COL",
    "InstitutionAddress": "Univeristy_Ave._197_Newark_North_East_US_07102-1814",
    "InstitutionName": "RUBIC",
    "InstitutionalDepartmentName": "Department",
    "MRAcquisitionType": "2D",
    "MagneticFieldStrength": 3,
    "Manufacturer": "Siemens",
    "ManufacturersModelName": "TrioTim",
    "Modality": "MR",
    "PartialFourier": 1,
    "PatientPosition": "HFS",
    "PercentPhaseFOV": 100,
    "PhaseEncodingDirection": "j-",
    "PhaseEncodingSteps": 68,
    "PhaseResolution": 1,
    "PixelBandwidth": 2451,
    "ProcedureStepDescription": "Krekelberg_David",
    "ProtocolName": "ep2d_bold_CardGameEPI_2",
    "PulseSequenceDetails": "%SiemensSeq%_ep2d_bold",
    "ReceiveCoilName": "HeadMatrix",
    "ReconMatrixPE": 68,
    "RepetitionTime": 2,
    "SAR": 0.174842,
    "ScanOptions": "FS",
    "ScanningSequence": "EP",
    "SequenceName": "_epfid2d1_68",
    "SequenceVariant": "SK",
    "SeriesDescription": "ep2d_bold_CardGameEPI_2",
    "SeriesNumber": 7,
    "ShimSetting": [
      1928,
      -532,
      -7516,
      944,
      40,
      320,
      -270,
      3
    ],
    "SliceThickness": 2.5,
    "SliceTiming": [
      1.9525,
      1.8975,
      1.84,
      1.785,
      1.73,
      1.6725,
      1.6175,
      1.5625,
      1.505,
      1.45,
      1.395,
      1.3375,
      1.2825,
      1.2275,
      1.1725,
      1.115,
      1.06,
      1.005,
      0.9475,
      0.8925,
      0.8375,
      0.78,
      0.725,
      0.67,
      0.615,
      0.5575,
      0.5025,
      0.4475,
      0.39,
      0.335,
      0.28,
      0.2225,
      0.1675,
      0.1125,
      0.055,
      0
    ],
    "SoftwareVersions": "syngo_MR_B19",
    "SpacingBetweenSlices": 3,
    "StationName": "MRC35450",
    "TaskName": "cardgame",
    "TotalReadoutTime": 0.0314901,
    "TxRefAmp": 355.767,
    "dataset": "<unset>",
    "dcmmeta_affine": [
      [
        -2.9998857975006104,
        2.3917861025068987e-09,
        -0.026179609820246696,
        101.09832763671875
      ],
      [
        0.00526414392516017,
        2.938725709915161,
        -0.6032108068466187,
        -68.29327392578125
      ],
      [
        -0.025644896551966667,
        0.6032337546348572,
        2.9386138916015625,
        -41.30774688720703
      ],
      [
        0.0,
        0.0,
        0.0,
        1.0
      ]
    ],
    "dcmmeta_reorient_transform": [
      [
        0.0,
        -1.0,
        0.0,
        67.0
      ],
      [
        1.0,
        0.0,
        0.0,
        0.0
      ],
      [
        0.0,
        0.0,
        1.0,
        0.0
      ],
      [
        0.0,
        0.0,
        0.0,
        1.0
      ]
    ],
    "dcmmeta_shape": [
      68,
      68,
      36,
      258
    ],
    "dcmmeta_slice_dim": 2,
    "dcmmeta_version": 0.6,
    "global": {
      "const": {
        "AcquisitionMatrix": [
          68,
          0,
          0,
          68
        ],
        "AngioFlag": "N",
        "BitsAllocated": 16,
        "BitsStored": 12,
        "Columns": 408,
        "EchoNumbers": 1,
        "EchoTime": 23.0,
        "EchoTrainLength": 1,
        "FlipAngle": 76.0,
        "HighBit": 11,
        "ImageOrientationPatient": [
          0.99996192305518,
          -0.0017547146441,
          -0.00854829903,
          7.97262e-10,
          0.97957524867894,
          -0.2010779256298
        ],
        "ImagePositionPatient": [
          -611.07890827702,
          -627.28982001231,
          106.01829264366
        ],
        "ImageType": [
          "ORIGINAL",
          "PRIMARY",
          "M",
          "ND",
          "MOSAIC"
        ],
        "ImagedNucleus": "1H",
        "ImagingFrequency": 123.218492,
        "InPlanePhaseEncodingDirection": "COL",
        "MRAcquisitionType": "2D",
        "MagneticFieldStrength": 3.0,
        "Manufacturer": "SIEMENS",
        "ManufacturerModelName": "TrioTim",
        "Modality": "MR",
        "NumberOfAverages": 1.0,
        "NumberOfPhaseEncodingSteps": 68,
        "PercentPhaseFieldOfView": 100.0,
        "PercentSampling": 100.0,
        "PerformedProcedureStepStartTime": "113039.203000",
        "PhotometricInterpretation": "MONOCHROME2",
        "PixelBandwidth": 2451.0,
        "PixelRepresentation": 0,
        "PixelSpacing": [
          3.0,
          3.0
        ],
        "ProtocolName": "ep2d_bold_CardGameEPI_2",
        "RepetitionTime": 2000.0,
        "Rows": 408,
        "SAR": 0.17484156027269,
        "SamplesPerPixel": 1,
        "ScanOptions": "FS",
        "ScanningSequence": "EP",
        "SequenceName": "*epfid2d1_68",
        "SequenceVariant": "SK",
        "SeriesDescription": "ep2d_bold_CardGameEPI_2",
        "SeriesNumber": 7,
        "SeriesTime": "121005.218000",
        "SliceLocation": -27.612994404918,
        "SliceThickness": 2.5,
        "SmallestImagePixelValue": 0,
        "SoftwareVersions": "syngo MR B19",
        "SpacingBetweenSlices": 3.0000000387776,
        "SpecificCharacterSet": "ISO_IR 100",
        "StudyID": "1",
        "StudyTime": "113039.156000",
        "TransmitCoilName": "Body",
        "VariableFlipAngleFlag": "N",
        "WindowCenterWidthExplanation": "Algo1",
        "dBdt": 0.0
      },
      "slices": {}
    },
    "modality": "bold",
    "run_id": 2,
    "subject_id": "227",
    "task_id": "cardgame",
    "time": {
      "samples": {
        "AcquisitionNumber": [
          1,
          2,
          3,
          4,
          5,
          6,
          7,
          8,
          9,
          10,
          11,
          12,
          13,
          14,
          15,
          16,
          17,
          18,
          19,
          20,
          21,
          22,
          23,
          24,
          25,
          26,
          27,
          28,
          29,
          30,
          31,
          32,
          33,
          34,
          35,
          36,
          37,
          38,
          39,
          40,
          41,
          42,
          43,
          44,
          45,
          46,
          47,
          48,
          49,
          50,
          51,
          52,
          53,
          54,
          55,
          56,
          57,
          58,
          59,
          60,
          61,
          62,
          63,
          64,
          65,
          66,
          67,
          68,
          69,
          70,
          71,
          72,
          73,
          74,
          75,
          76,
          77,
          78,
          79,
          80,
          81,
          82,
          83,
          84,
          85,
          86,
          87,
          88,
          89,
          90,
          91,
          92,
          93,
          94,
          95,
          96,
          97,
          98,
          99,
          100,
          101,
          102,
          103,
          104,
          105,
          106,
          107,
          108,
          109,
          110,
          111,
          112,
          113,
          114,
          115,
          116,
          117,
          118,
          119,
          120,
          121,
          122,
          123,
          124,
          125,
          126,
          127,
          128,
          129,
          130,
          131,
          132,
          133,
          134,
          135,
          136,
          137,
          138,
          139,
          140,
          141,
          142,
          143,
          144,
          145,
          146,
          147,
          148,
          149,
          150,
          151,
          152,
          153,
          154,
          155,
          156,
          157,
          158,
          159,
          160,
          161,
          162,
          163,
          164,
          165,
          166,
          167,
          168,
          169,
          170,
          171,
          172,
          173,
          174,
          175,
          176,
          177,
          178,
          179,
          180,
          181,
          182,
          183,
          184,
          185,
          186,
          187,
          188,
          189,
          190,
          191,
          192,
          193,
          194,
          195,
          196,
          197,
          198,
          199,
          200,
          201,
          202,
          203,
          204,
          205,
          206,
          207,
          208,
          209,
          210,
          211,
          212,
          213,
          214,
          215,
          216,
          217,
          218,
          219,
          220,
          221,
          222,
          223,
          224,
          225,
          226,
          227,
          228,
          229,
          230,
          231,
          232,
          233,
          234,
          235,
          236,
          237,
          238,
          239,
          240,
          241,
          242,
          243,
          244,
          245,
          246,
          247,
          248,
          249,
          250,
          251,
          252,
          253,
          254,
          255,
          256,
          257,
          258
        ],
        "AcquisitionTime": [
          "120907.587500",
          "120909.595000",
          "120911.602500",
          "120913.610000",
          "120915.620000",
          "120917.627500",
          "120919.635000",
          "120921.642500",
          "120923.652500",
          "120925.660000",
          "120927.667500",
          "120929.675000",
          "120931.682500",
          "120933.692500",
          "120935.700000",
          "120937.707500",
          "120939.715000",
          "120941.722500",
          "120943.732500",
          "120945.740000",
          "120947.747500",
          "120949.755000",
          "120951.765000",
          "120953.772500",
          "120955.780000",
          "120957.787500",
          "120959.795000",
          "121001.805000",
          "121003.812500",
          "121005.820000",
          "121007.827500",
          "121009.835000",
          "121011.845000",
          "121013.852500",
          "121015.860000",
          "121017.867500",
          "121019.877500",
          "121021.885000",
          "121023.892500",
          "121025.900000",
          "121027.907500",
          "121029.917500",
          "121031.925000",
          "121033.932500",
          "121035.940000",
          "121037.947500",
          "121039.957500",
          "121041.965000",
          "121043.972500",
          "121045.980000",
          "121047.987500",
          "121049.997500",
          "121052.005000",
          "121054.012500",
          "121056.020000",
          "121058.030000",
          "121100.037500",
          "121102.045000",
          "121104.052500",
          "121106.060000",
          "121108.070000",
          "121110.077500",
          "121112.085000",
          "121114.092500",
          "121116.100000",
          "121118.110000",
          "121120.117500",
          "121122.125000",
          "121124.132500",
          "121126.142500",
          "121128.150000",
          "121130.157500",
          "121132.165000",
          "121134.172500",
          "121136.182500",
          "121138.190000",
          "121140.197500",
          "121142.205000",
          "121144.212500",
          "121146.222500",
          "121148.230000",
          "121150.237500",
          "121152.245000",
          "121154.255000",
          "121156.262500",
          "121158.270000",
          "121200.277500",
          "121202.285000",
          "121204.295000",
          "121206.302500",
          "121208.310000",
          "121210.317500",
          "121212.325000",
          "121214.335000",
          "121216.342500",
          "121218.350000",
          "121220.357500",
          "121222.365000",
          "121224.375000",
          "121226.382500",
          "121228.390000",
          "121230.397500",
          "121232.407500",
          "121234.415000",
          "121236.422500",
          "121238.430000",
          "121240.437500",
          "121242.447500",
          "121244.455000",
          "121246.462500",
          "121248.470000",
          "121250.477500",
          "121252.487500",
          "121254.495000",
          "121256.502500",
          "121258.510000",
          "121300.520000",
          "121302.527500",
          "121304.535000",
          "121306.542500",
          "121308.550000",
          "121310.560000",
          "121312.567500",
          "121314.575000",
          "121316.582500",
          "121318.590000",
          "121320.600000",
          "121322.607500",
          "121324.615000",
          "121326.622500",
          "121328.632500",
          "121330.640000",
          "121332.647500",
          "121334.655000",
          "121336.662500",
          "121338.672500",
          "121340.680000",
          "121342.687500",
          "121344.695000",
          "121346.702500",
          "121348.712500",
          "121350.720000",
          "121352.727500",
          "121354.735000",
          "121356.745000",
          "121358.752500",
          "121400.760000",
          "121402.767500",
          "121404.775000",
          "121406.785000",
          "121408.792500",
          "121410.800000",
          "121412.807500",
          "121414.815000",
          "121416.825000",
          "121418.832500",
          "121420.840000",
          "121422.847500",
          "121424.855000",
          "121426.865000",
          "121428.872500",
          "121430.880000",
          "121432.887500",
          "121434.897500",
          "121436.905000",
          "121438.912500",
          "121440.920000",
          "121442.927500",
          "121444.937500",
          "121446.945000",
          "121448.952500",
          "121450.960000",
          "121452.967500",
          "121454.977500",
          "121456.985000",
          "121458.992500",
          "121501.000000",
          "121503.010000",
          "121505.017500",
          "121507.025000",
          "121509.032500",
          "121511.040000",
          "121513.050000",
          "121515.057500",
          "121517.065000",
          "121519.072500",
          "121521.080000",
          "121523.090000",
          "121525.097500",
          "121527.105000",
          "121529.112500",
          "121531.122500",
          "121533.130000",
          "121535.137500",
          "121537.145000",
          "121539.152500",
          "121541.162500",
          "121543.170000",
          "121545.177500",
          "121547.185000",
          "121549.192500",
          "121551.202500",
          "121553.210000",
          "121555.217500",
          "121557.225000",
          "121559.232500",
          "121601.242500",
          "121603.250000",
          "121605.257500",
          "121607.265000",
          "121609.275000",
          "121611.282500",
          "121613.290000",
          "121615.297500",
          "121617.305000",
          "121619.315000",
          "121621.322500",
          "121623.330000",
          "121625.337500",
          "121627.345000",
          "121629.355000",
          "121631.362500",
          "121633.370000",
          "121635.377500",
          "121637.387500",
          "121639.395000",
          "121641.402500",
          "121643.410000",
          "121645.417500",
          "121647.427500",
          "121649.435000",
          "121651.442500",
          "121653.450000",
          "121655.457500",
          "121657.467500",
          "121659.475000",
          "121701.482500",
          "121703.490000",
          "121705.500000",
          "121707.507500",
          "121709.515000",
          "121711.522500",
          "121713.530000",
          "121715.540000",
          "121717.547500",
          "121719.555000",
          "121721.562500",
          "121723.570000",
          "121725.580000",
          "121727.587500",
          "121729.595000",
          "121731.602500",
          "121733.610000",
          "121735.620000",
          "121737.627500",
          "121739.635000",
          "121741.642500",
          "121743.652500"
        ],
        "ContentTime": [
          "121005.218000",
          "121005.218000",
          "121005.218000",
          "121005.218000",
          "121005.218000",
          "121005.218000",
          "121005.234000",
          "121005.234000",
          "121005.234000",
          "121005.234000",
          "121005.250000",
          "121005.250000",
          "121005.250000",
          "121005.250000",
          "121005.250000",
          "121005.250000",
          "121005.250000",
          "121005.265000",
          "121005.265000",
          "121005.265000",
          "121005.265000",
          "121005.265000",
          "121005.265000",
          "121005.265000",
          "121005.281000",
          "121005.281000",
          "121005.281000",
          "121005.281000",
          "121005.281000",
          "121045.203000",
          "121045.218000",
          "121045.218000",
          "121045.218000",
          "121045.218000",
          "121045.218000",
          "121045.218000",
          "121045.218000",
          "121045.234000",
          "121045.234000",
          "121045.234000",
          "121045.234000",
          "121045.234000",
          "121045.234000",
          "121045.234000",
          "121045.234000",
          "121045.250000",
          "121045.250000",
          "121045.250000",
          "121045.250000",
          "121125.203000",
          "121125.218000",
          "121125.218000",
          "121125.218000",
          "121125.218000",
          "121125.218000",
          "121125.218000",
          "121125.218000",
          "121125.234000",
          "121125.234000",
          "121125.234000",
          "121125.234000",
          "121125.234000",
          "121125.234000",
          "121125.234000",
          "121125.250000",
          "121125.250000",
          "121125.250000",
          "121125.250000",
          "121125.250000",
          "121205.203000",
          "121205.218000",
          "121205.218000",
          "121205.218000",
          "121205.218000",
          "121205.218000",
          "121205.218000",
          "121205.234000",
          "121205.234000",
          "121205.234000",
          "121205.234000",
          "121205.234000",
          "121205.234000",
          "121205.234000",
          "121205.250000",
          "121205.250000",
          "121205.250000",
          "121205.250000",
          "121205.250000",
          "121205.265000",
          "121245.203000",
          "121245.218000",
          "121245.218000",
          "121245.218000",
          "121245.218000",
          "121245.218000",
          "121245.218000",
          "121245.218000",
          "121245.234000",
          "121245.234000",
          "121245.234000",
          "121245.234000",
          "121245.234000",
          "121245.234000",
          "121245.250000",
          "121245.250000",
          "121245.250000",
          "121245.250000",
          "121245.250000",
          "121245.250000",
          "121325.203000",
          "121325.218000",
          "121325.218000",
          "121325.218000",
          "121325.218000",
          "121325.218000",
          "121325.218000",
          "121325.218000",
          "121325.234000",
          "121325.234000",
          "121325.234000",
          "121325.234000",
          "121325.234000",
          "121325.234000",
          "121325.234000",
          "121325.234000",
          "121325.250000",
          "121325.250000",
          "121325.250000",
          "121325.250000",
          "121405.203000",
          "121405.218000",
          "121405.218000",
          "121405.218000",
          "121405.218000",
          "121405.218000",
          "121405.218000",
          "121405.218000",
          "121405.234000",
          "121405.234000",
          "121405.234000",
          "121405.234000",
          "121405.234000",
          "121405.234000",
          "121405.234000",
          "121405.250000",
          "121405.250000",
          "121405.250000",
          "121405.250000",
          "121405.250000",
          "121445.203000",
          "121445.218000",
          "121445.218000",
          "121445.218000",
          "121445.218000",
          "121445.218000",
          "121445.218000",
          "121445.234000",
          "121445.234000",
          "121445.234000",
          "121445.234000",
          "121445.234000",
          "121445.234000",
          "121445.250000",
          "121445.250000",
          "121445.250000",
          "121445.250000",
          "121445.250000",
          "121445.250000",
          "121445.265000",
          "121525.203000",
          "121525.218000",
          "121525.218000",
          "121525.218000",
          "121525.218000",
          "121525.218000",
          "121525.218000",
          "121525.218000",
          "121525.234000",
          "121525.234000",
          "121525.234000",
          "121525.234000",
          "121525.234000",
          "121525.234000",
          "121525.234000",
          "121525.250000",
          "121525.250000",
          "121525.250000",
          "121525.250000",
          "121525.250000",
          "121605.203000",
          "121605.218000",
          "121605.218000",
          "121605.218000",
          "121605.218000",
          "121605.218000",
          "121605.218000",
          "121605.218000",
          "121605.234000",
          "121605.234000",
          "121605.234000",
          "121605.234000",
          "121605.234000",
          "121605.234000",
          "121605.234000",
          "121605.250000",
          "121605.250000",
          "121605.250000",
          "121605.250000",
          "121605.250000",
          "121645.203000",
          "121645.218000",
          "121645.218000",
          "121645.218000",
          "121645.218000",
          "121645.218000",
          "121645.218000",
          "121645.218000",
          "121645.234000",
          "121645.234000",
          "121645.234000",
          "121645.234000",
          "121645.234000",
          "121645.234000",
          "121645.234000",
          "121645.250000",
          "121645.250000",
          "121645.250000",
          "121645.250000",
          "121645.250000",
          "121725.203000",
          "121725.218000",
          "121725.218000",
          "121725.218000",
          "121725.218000",
          "121725.218000",
          "121725.218000",
          "121725.218000",
          "121725.234000",
          "121725.234000",
          "121725.234000",
          "121725.234000",
          "121725.234000",
          "121725.234000",
          "121725.234000",
          "121725.250000",
          "121725.250000",
          "121725.250000",
          "121725.250000",
          "121725.250000",
          "121742.187000",
          "121742.187000",
          "121742.187000",
          "121742.187000",
          "121742.187000",
          "121742.203000",
          "121742.203000",
          "121742.203000",
          "121742.203000"
        ],
        "InstanceCreationTime": [
          "121005.218000",
          "121005.218000",
          "121005.218000",
          "121005.218000",
          "121005.218000",
          "121005.218000",
          "121005.234000",
          "121005.234000",
          "121005.234000",
          "121005.234000",
          "121005.250000",
          "121005.250000",
          "121005.250000",
          "121005.250000",
          "121005.250000",
          "121005.250000",
          "121005.250000",
          "121005.265000",
          "121005.265000",
          "121005.265000",
          "121005.265000",
          "121005.265000",
          "121005.265000",
          "121005.265000",
          "121005.281000",
          "121005.281000",
          "121005.281000",
          "121005.281000",
          "121005.281000",
          "121045.203000",
          "121045.218000",
          "121045.218000",
          "121045.218000",
          "121045.218000",
          "121045.218000",
          "121045.218000",
          "121045.218000",
          "121045.234000",
          "121045.234000",
          "121045.234000",
          "121045.234000",
          "121045.234000",
          "121045.234000",
          "121045.234000",
          "121045.234000",
          "121045.250000",
          "121045.250000",
          "121045.250000",
          "121045.250000",
          "121125.203000",
          "121125.218000",
          "121125.218000",
          "121125.218000",
          "121125.218000",
          "121125.218000",
          "121125.218000",
          "121125.218000",
          "121125.234000",
          "121125.234000",
          "121125.234000",
          "121125.234000",
          "121125.234000",
          "121125.234000",
          "121125.234000",
          "121125.250000",
          "121125.250000",
          "121125.250000",
          "121125.250000",
          "121125.250000",
          "121205.203000",
          "121205.218000",
          "121205.218000",
          "121205.218000",
          "121205.218000",
          "121205.218000",
          "121205.218000",
          "121205.234000",
          "121205.234000",
          "121205.234000",
          "121205.234000",
          "121205.234000",
          "121205.234000",
          "121205.234000",
          "121205.250000",
          "121205.250000",
          "121205.250000",
          "121205.250000",
          "121205.250000",
          "121205.265000",
          "121245.203000",
          "121245.218000",
          "121245.218000",
          "121245.218000",
          "121245.218000",
          "121245.218000",
          "121245.218000",
          "121245.218000",
          "121245.234000",
          "121245.234000",
          "121245.234000",
          "121245.234000",
          "121245.234000",
          "121245.234000",
          "121245.250000",
          "121245.250000",
          "121245.250000",
          "121245.250000",
          "121245.250000",
          "121245.250000",
          "121325.203000",
          "121325.218000",
          "121325.218000",
          "121325.218000",
          "121325.218000",
          "121325.218000",
          "121325.218000",
          "121325.218000",
          "121325.234000",
          "121325.234000",
          "121325.234000",
          "121325.234000",
          "121325.234000",
          "121325.234000",
          "121325.234000",
          "121325.234000",
          "121325.250000",
          "121325.250000",
          "121325.250000",
          "121325.250000",
          "121405.203000",
          "121405.218000",
          "121405.218000",
          "121405.218000",
          "121405.218000",
          "121405.218000",
          "121405.218000",
          "121405.218000",
          "121405.234000",
          "121405.234000",
          "121405.234000",
          "121405.234000",
          "121405.234000",
          "121405.234000",
          "121405.234000",
          "121405.250000",
          "121405.250000",
          "121405.250000",
          "121405.250000",
          "121405.250000",
          "121445.203000",
          "121445.218000",
          "121445.218000",
          "121445.218000",
          "121445.218000",
          "121445.218000",
          "121445.218000",
          "121445.234000",
          "121445.234000",
          "121445.234000",
          "121445.234000",
          "121445.234000",
          "121445.234000",
          "121445.250000",
          "121445.250000",
          "121445.250000",
          "121445.250000",
          "121445.250000",
          "121445.250000",
          "121445.265000",
          "121525.203000",
          "121525.218000",
          "121525.218000",
          "121525.218000",
          "121525.218000",
          "121525.218000",
          "121525.218000",
          "121525.218000",
          "121525.234000",
          "121525.234000",
          "121525.234000",
          "121525.234000",
          "121525.234000",
          "121525.234000",
          "121525.234000",
          "121525.250000",
          "121525.250000",
          "121525.250000",
          "121525.250000",
          "121525.250000",
          "121605.203000",
          "121605.218000",
          "121605.218000",
          "121605.218000",
          "121605.218000",
          "121605.218000",
          "121605.218000",
          "121605.218000",
          "121605.234000",
          "121605.234000",
          "121605.234000",
          "121605.234000",
          "121605.234000",
          "121605.234000",
          "121605.234000",
          "121605.250000",
          "121605.250000",
          "121605.250000",
          "121605.250000",
          "121605.250000",
          "121645.203000",
          "121645.218000",
          "121645.218000",
          "121645.218000",
          "121645.218000",
          "121645.218000",
          "121645.218000",
          "121645.218000",
          "121645.234000",
