{
  "aor": 0.002411541666666667,
  "aqi": 0.013298039749999999,
  "bids_meta": {
    "AcquisitionMatrixPE": 68,
    "AcquisitionNumber": 1,
    "AcquisitionTime": "11:59:57.657500",
    "BandwidthPerPixelPhaseEncode": 31.289,
    "BaseResolution": 68,
    "CogAtlasID": "TODO",
    "CoilString": "C:HEA;HEP",
    "ConversionSoftware": "dcm2niix",
    "ConversionSoftwareVersion": "v1.0.20190902",
    "DerivedVendorReportedEchoSpacing": 0.000470002,
    "DeviceSerialNumber": "35450",
    "DwellTime": 3e-06,
    "EchoTime": 0.023,
    "EffectiveEchoSpacing": 0.000470002,
    "FlipAngle": 76,
    "ImageOrientationPatientDICOM": [
      0.999962,
      -0.00175471,
      -0.0085483,
      7.97262e-10,
      0.979575,
      -0.201078
    ],
    "ImageType": [
      "ORIGINAL",
      "PRIMARY",
      "M",
      "ND",
      "MOSAIC"
    ],
    "ImagingFrequency": 123.218,
    "InPlanePhaseEncodingDirectionDICOM": "COL",
    "InstitutionAddress": "Univeristy_Ave._197_Newark_North_East_US_07102-1814",
    "InstitutionName": "RUBIC",
    "InstitutionalDepartmentName": "Department",
    "MRAcquisitionType": "2D",
    "MagneticFieldStrength": 3,
    "Manufacturer": "Siemens",
    "ManufacturersModelName": "TrioTim",
    "Modality": "MR",
    "PartialFourier": 1,
    "PatientPosition": "HFS",
    "PercentPhaseFOV": 100,
    "PhaseEncodingDirection": "j-",
    "PhaseEncodingSteps": 68,
    "PhaseResolution": 1,
    "PixelBandwidth": 2451,
    "ProcedureStepDescription": "Krekelberg_David",
    "ProtocolName": "ep2d_bold_RestEPI_1",
    "PulseSequenceDetails": "%SiemensSeq%_ep2d_bold",
    "ReceiveCoilName": "HeadMatrix",
    "ReconMatrixPE": 68,
    "RepetitionTime": 2,
    "SAR": 0.174804,
    "ScanOptions": "FS",
    "ScanningSequence": "EP",
    "SequenceName": "_epfid2d1_68",
    "SequenceVariant": "SK",
    "SeriesDescription": "ep2d_bold_RestEPI_1",
    "SeriesNumber": 6,
    "ShimSetting": [
      1928,
      -532,
      -7516,
      944,
      40,
      320,
      -270,
      3
    ],
    "SliceThickness": 2.5,
    "SliceTiming": [
      1.9525,
      1.895,
      1.84,
      1.785,
      1.73,
      1.6725,
      1.6175,
      1.5625,
      1.505,
      1.45,
      1.395,
      1.3375,
      1.2825,
      1.2275,
      1.17,
      1.115,
      1.06,
      1.005,
      0.9475,
      0.8925,
      0.8375,
      0.78,
      0.725,
      0.67,
      0.6125,
      0.5575,
      0.5025,
      0.445,
      0.39,
      0.335,
      0.28,
      0.2225,
      0.1675,
      0.1125,
      0.055,
      0
    ],
    "SoftwareVersions": "syngo_MR_B19",
    "SpacingBetweenSlices": 3,
    "StationName": "MRC35450",
    "TaskName": "rest",
    "TotalReadoutTime": 0.0314901,
    "TxRefAmp": 355.767,
    "dataset": "<unset>",
    "dcmmeta_affine": [
      [
        -2.9998857975006104,
        2.3917861025068987e-09,
        -0.026179609820246696,
        101.09832763671875
      ],
      [
        0.00526414392516017,
        2.938725709915161,
        -0.6032108068466187,
        -68.29327392578125
      ],
      [
        -0.025644896551966667,
        0.6032337546348572,
        2.9386138916015625,
        -41.30774688720703
      ],
      [
        0.0,
        0.0,
        0.0,
        1.0
      ]
    ],
    "dcmmeta_reorient_transform": [
      [
        0.0,
        -1.0,
        0.0,
        67.0
      ],
      [
        1.0,
        0.0,
        0.0,
        0.0
      ],
      [
        0.0,
        0.0,
        1.0,
        0.0
      ],
      [
        0.0,
        0.0,
        0.0,
        1.0
      ]
    ],
    "dcmmeta_shape": [
      68,
      68,
      36,
      240
    ],
    "dcmmeta_slice_dim": 2,
    "dcmmeta_version": 0.6,
    "global": {
      "const": {
        "AcquisitionMatrix": [
          68,
          0,
          0,
          68
        ],
        "AngioFlag": "N",
        "BitsAllocated": 16,
        "BitsStored": 12,
        "Columns": 408,
        "EchoNumbers": 1,
        "EchoTime": 23.0,
        "EchoTrainLength": 1,
        "FlipAngle": 76.0,
        "HighBit": 11,
        "ImageOrientationPatient": [
          0.99996192305518,
          -0.0017547146441,
          -0.00854829903,
          7.97262e-10,
          0.97957524867894,
          -0.2010779256298
        ],
        "ImagePositionPatient": [
          -611.07890827702,
          -627.28982001231,
          106.01829264366
        ],
        "ImageType": [
          "ORIGINAL",
          "PRIMARY",
          "M",
          "ND",
          "MOSAIC"
        ],
        "ImagedNucleus": "1H",
        "ImagingFrequency": 123.218478,
        "InPlanePhaseEncodingDirection": "COL",
        "MRAcquisitionType": "2D",
        "MagneticFieldStrength": 3.0,
        "Manufacturer": "SIEMENS",
        "ManufacturerModelName": "TrioTim",
        "Modality": "MR",
        "NumberOfAverages": 1.0,
        "NumberOfPhaseEncodingSteps": 68,
        "PercentPhaseFieldOfView": 100.0,
        "PercentSampling": 100.0,
        "PerformedProcedureStepStartTime": "113039.203000",
        "PhotometricInterpretation": "MONOCHROME2",
        "PixelBandwidth": 2451.0,
        "PixelRepresentation": 0,
        "PixelSpacing": [
          3.0,
          3.0
        ],
        "ProtocolName": "ep2d_bold_RestEPI_1",
        "RepetitionTime": 2000.0,
        "Rows": 408,
        "SAR": 0.17480416248986,
        "SamplesPerPixel": 1,
        "ScanOptions": "FS",
        "ScanningSequence": "EP",
        "SequenceName": "*epfid2d1_68",
        "SequenceVariant": "SK",
        "SeriesDescription": "ep2d_bold_RestEPI_1",
        "SeriesNumber": 6,
        "SeriesTime": "120056.156000",
        "SliceLocation": -27.612994404918,
        "SliceThickness": 2.5,
        "SmallestImagePixelValue": 0,
        "SoftwareVersions": "syngo MR B19",
        "SpacingBetweenSlices": 3.0000000387776,
        "SpecificCharacterSet": "ISO_IR 100",
        "StudyID": "1",
        "StudyTime": "113039.156000",
        "TransmitCoilName": "Body",
        "VariableFlipAngleFlag": "N",
        "WindowCenterWidthExplanation": "Algo1",
        "dBdt": 0.0
      },
      "slices": {}
    },
    "modality": "bold",
    "run_id": 1,
    "subject_id": "227",
    "task_id": "rest",
    "time": {
      "samples": {
        "AcquisitionNumber": [
          1,
          2,
          3,
          4,
          5,
          6,
          7,
          8,
          9,
          10,
          11,
          12,
          13,
          14,
          15,
          16,
          17,
          18,
          19,
          20,
          21,
          22,
          23,
          24,
          25,
          26,
          27,
          28,
          29,
          30,
          31,
          32,
          33,
          34,
          35,
          36,
          37,
          38,
          39,
          40,
          41,
          42,
          43,
          44,
          45,
          46,
          47,
          48,
          49,
          50,
          51,
          52,
          53,
          54,
          55,
          56,
          57,
          58,
          59,
          60,
          61,
          62,
          63,
          64,
          65,
          66,
          67,
          68,
          69,
          70,
          71,
          72,
          73,
          74,
          75,
          76,
          77,
          78,
          79,
          80,
          81,
          82,
          83,
          84,
          85,
          86,
          87,
          88,
          89,
          90,
          91,
          92,
          93,
          94,
          95,
          96,
          97,
          98,
          99,
          100,
          101,
          102,
          103,
          104,
          105,
          106,
          107,
          108,
          109,
          110,
          111,
          112,
          113,
          114,
          115,
          116,
          117,
          118,
          119,
          120,
          121,
          122,
          123,
          124,
          125,
          126,
          127,
          128,
          129,
          130,
          131,
          132,
          133,
          134,
          135,
          136,
          137,
          138,
          139,
          140,
          141,
          142,
          143,
          144,
          145,
          146,
          147,
          148,
          149,
          150,
          151,
          152,
          153,
          154,
          155,
          156,
          157,
          158,
          159,
          160,
          161,
          162,
          163,
          164,
          165,
          166,
          167,
          168,
          169,
          170,
          171,
          172,
          173,
          174,
          175,
          176,
          177,
          178,
          179,
          180,
          181,
          182,
          183,
          184,
          185,
          186,
          187,
          188,
          189,
          190,
          191,
          192,
          193,
          194,
          195,
          196,
          197,
          198,
          199,
          200,
          201,
          202,
          203,
          204,
          205,
          206,
          207,
          208,
          209,
          210,
          211,
          212,
          213,
          214,
          215,
          216,
          217,
          218,
          219,
          220,
          221,
          222,
          223,
          224,
          225,
          226,
          227,
          228,
          229,
          230,
          231,
          232,
          233,
          234,
          235,
          236,
          237,
          238,
          239,
          240
        ],
        "AcquisitionTime": [
          "115957.657500",
          "115959.665000",
          "120001.672500",
          "120003.680000",
          "120005.690000",
          "120007.697500",
          "120009.705000",
          "120011.712500",
          "120013.720000",
          "120015.730000",
          "120017.737500",
          "120019.745000",
          "120021.752500",
          "120023.762500",
          "120025.770000",
          "120027.777500",
          "120029.785000",
          "120031.792500",
          "120033.802500",
          "120035.810000",
          "120037.817500",
          "120039.825000",
          "120041.832500",
          "120043.842500",
          "120045.850000",
          "120047.857500",
          "120049.865000",
          "120051.872500",
          "120053.882500",
          "120055.890000",
          "120057.897500",
          "120059.905000",
          "120101.915000",
          "120103.922500",
          "120105.930000",
          "120107.937500",
          "120109.945000",
          "120111.955000",
          "120113.962500",
          "120115.970000",
          "120117.977500",
          "120119.985000",
          "120121.995000",
          "120124.002500",
          "120126.010000",
          "120128.017500",
          "120130.027500",
          "120132.035000",
          "120134.042500",
          "120136.050000",
          "120138.057500",
          "120140.067500",
          "120142.075000",
          "120144.082500",
          "120146.090000",
          "120148.097500",
          "120150.107500",
          "120152.115000",
          "120154.122500",
          "120156.130000",
          "120158.140000",
          "120200.147500",
          "120202.155000",
          "120204.162500",
          "120206.170000",
          "120208.180000",
          "120210.187500",
          "120212.195000",
          "120214.202500",
          "120216.210000",
          "120218.220000",
          "120220.227500",
          "120222.235000",
          "120224.242500",
          "120226.250000",
          "120228.260000",
          "120230.267500",
          "120232.275000",
          "120234.282500",
          "120236.292500",
          "120238.300000",
          "120240.307500",
          "120242.315000",
          "120244.322500",
          "120246.332500",
          "120248.340000",
          "120250.347500",
          "120252.355000",
          "120254.362500",
          "120256.372500",
          "120258.380000",
          "120300.387500",
          "120302.395000",
          "120304.405000",
          "120306.412500",
          "120308.420000",
          "120310.427500",
          "120312.435000",
          "120314.445000",
          "120316.452500",
          "120318.460000",
          "120320.467500",
          "120322.475000",
          "120324.485000",
          "120326.492500",
          "120328.500000",
          "120330.507500",
          "120332.517500",
          "120334.525000",
          "120336.532500",
          "120338.540000",
          "120340.547500",
          "120342.557500",
          "120344.565000",
          "120346.572500",
          "120348.580000",
          "120350.587500",
          "120352.597500",
          "120354.605000",
          "120356.612500",
          "120358.620000",
          "120400.627500",
          "120402.637500",
          "120404.645000",
          "120406.652500",
          "120408.660000",
          "120410.670000",
          "120412.677500",
          "120414.685000",
          "120416.692500",
          "120418.700000",
          "120420.710000",
          "120422.717500",
          "120424.725000",
          "120426.732500",
          "120428.740000",
          "120430.750000",
          "120432.757500",
          "120434.765000",
          "120436.772500",
          "120438.782500",
          "120440.790000",
          "120442.797500",
          "120444.805000",
          "120446.812500",
          "120448.822500",
          "120450.830000",
          "120452.837500",
          "120454.845000",
          "120456.852500",
          "120458.862500",
          "120500.870000",
          "120502.877500",
          "120504.885000",
          "120506.895000",
          "120508.902500",
          "120510.910000",
          "120512.917500",
          "120514.925000",
          "120516.935000",
          "120518.942500",
          "120520.950000",
          "120522.957500",
          "120524.965000",
          "120526.975000",
          "120528.982500",
          "120530.990000",
          "120532.997500",
          "120535.005000",
          "120537.015000",
          "120539.022500",
          "120541.030000",
          "120543.037500",
          "120545.047500",
          "120547.055000",
          "120549.062500",
          "120551.070000",
          "120553.077500",
          "120555.087500",
          "120557.095000",
          "120559.102500",
          "120601.110000",
          "120603.117500",
          "120605.127500",
          "120607.135000",
          "120609.142500",
          "120611.150000",
          "120613.160000",
          "120615.167500",
          "120617.175000",
          "120619.182500",
          "120621.190000",
          "120623.200000",
          "120625.207500",
          "120627.215000",
          "120629.222500",
          "120631.230000",
          "120633.240000",
          "120635.247500",
          "120637.255000",
          "120639.262500",
          "120641.272500",
          "120643.280000",
          "120645.287500",
          "120647.295000",
          "120649.302500",
          "120651.312500",
          "120653.320000",
          "120655.327500",
          "120657.335000",
          "120659.342500",
          "120701.352500",
          "120703.360000",
          "120705.367500",
          "120707.375000",
          "120709.385000",
          "120711.392500",
          "120713.400000",
          "120715.407500",
          "120717.415000",
          "120719.425000",
          "120721.432500",
          "120723.440000",
          "120725.447500",
          "120727.455000",
          "120729.465000",
          "120731.472500",
          "120733.480000",
          "120735.487500",
          "120737.495000",
          "120739.505000",
          "120741.512500",
          "120743.520000",
          "120745.527500",
          "120747.537500",
          "120749.545000",
          "120751.552500",
          "120753.560000",
          "120755.567500",
          "120757.577500"
        ],
        "ContentTime": [
          "120056.156000",
          "120056.156000",
          "120056.156000",
          "120056.156000",
          "120056.156000",
          "120056.156000",
          "120056.171000",
          "120056.171000",
          "120056.171000",
          "120056.171000",
          "120056.171000",
          "120056.171000",
          "120056.187000",
          "120056.187000",
          "120056.187000",
          "120056.187000",
          "120056.187000",
          "120056.203000",
          "120056.203000",
          "120056.203000",
          "120056.203000",
          "120056.203000",
          "120056.203000",
          "120056.203000",
          "120056.203000",
          "120056.218000",
          "120056.218000",
          "120056.218000",
          "120056.218000",
          "120136.140000",
          "120136.156000",
          "120136.156000",
          "120136.156000",
          "120136.156000",
          "120136.156000",
          "120136.156000",
          "120136.156000",
          "120136.171000",
          "120136.171000",
          "120136.171000",
          "120136.171000",
          "120136.171000",
          "120136.171000",
          "120136.171000",
          "120136.171000",
          "120136.187000",
          "120136.187000",
          "120136.187000",
          "120136.187000",
          "120216.140000",
          "120216.156000",
          "120216.156000",
          "120216.156000",
          "120216.156000",
          "120216.156000",
          "120216.156000",
          "120216.156000",
          "120216.171000",
          "120216.171000",
          "120216.171000",
          "120216.171000",
          "120216.171000",
          "120216.187000",
          "120216.187000",
          "120216.187000",
          "120216.187000",
          "120216.187000",
          "120216.187000",
          "120216.187000",
          "120256.140000",
          "120256.156000",
          "120256.156000",
          "120256.156000",
          "120256.156000",
          "120256.156000",
          "120256.156000",
          "120256.156000",
          "120256.171000",
          "120256.171000",
          "120256.171000",
          "120256.171000",
          "120256.171000",
          "120256.171000",
          "120256.171000",
          "120256.171000",
          "120256.187000",
          "120256.187000",
          "120256.187000",
          "120256.187000",
          "120336.140000",
          "120336.156000",
          "120336.156000",
          "120336.156000",
          "120336.156000",
          "120336.156000",
          "120336.156000",
          "120336.156000",
          "120336.171000",
          "120336.171000",
          "120336.171000",
          "120336.171000",
          "120336.171000",
          "120336.171000",
          "120336.171000",
          "120336.171000",
          "120336.187000",
          "120336.187000",
          "120336.187000",
          "120336.187000",
          "120356.140000",
          "120356.156000",
          "120356.156000",
          "120356.156000",
          "120356.156000",
          "120356.156000",
          "120356.156000",
          "120356.156000",
          "120356.171000",
          "120356.171000",
          "120436.140000",
          "120436.156000",
          "120436.156000",
          "120436.156000",
          "120436.156000",
          "120436.156000",
          "120436.156000",
          "120436.156000",
          "120436.171000",
          "120436.171000",
          "120436.171000",
          "120436.171000",
          "120436.171000",
          "120436.171000",
          "120436.171000",
          "120436.171000",
          "120436.187000",
          "120436.187000",
          "120436.187000",
          "120436.187000",
          "120516.140000",
          "120516.156000",
          "120516.156000",
          "120516.156000",
          "120516.156000",
          "120516.156000",
          "120516.156000",
          "120516.156000",
          "120516.171000",
          "120516.171000",
          "120516.171000",
          "120516.171000",
          "120516.171000",
          "120516.171000",
          "120516.171000",
          "120516.171000",
          "120516.187000",
          "120516.187000",
          "120516.187000",
          "120516.187000",
          "120556.140000",
          "120556.156000",
          "120556.156000",
          "120556.156000",
          "120556.156000",
          "120556.156000",
          "120556.156000",
          "120556.156000",
          "120556.171000",
          "120556.171000",
          "120556.171000",
          "120556.171000",
          "120556.171000",
          "120556.187000",
          "120556.187000",
          "120556.187000",
          "120556.187000",
          "120556.187000",
          "120556.187000",
          "120556.187000",
          "120636.140000",
          "120636.156000",
          "120636.156000",
          "120636.156000",
          "120636.156000",
          "120636.156000",
          "120636.156000",
          "120636.156000",
          "120636.171000",
          "120636.171000",
          "120636.171000",
          "120636.171000",
          "120636.171000",
          "120636.171000",
          "120636.171000",
          "120636.171000",
          "120636.187000",
          "120636.187000",
          "120636.187000",
          "120636.187000",
          "120716.140000",
          "120716.156000",
          "120716.156000",
          "120716.156000",
          "120716.156000",
          "120716.156000",
          "120716.156000",
          "120716.156000",
          "120716.171000",
          "120716.171000",
          "120716.171000",
          "120716.171000",
          "120716.171000",
          "120716.171000",
          "120716.171000",
          "120716.171000",
          "120716.187000",
          "120716.187000",
          "120716.187000",
          "120716.187000",
          "120756.140000",
          "120756.156000",
          "120756.156000",
          "120756.156000",
          "120756.156000",
          "120756.156000",
          "120756.156000",
          "120756.156000",
          "120756.171000",
          "120756.171000",
          "120756.171000",
          "120756.171000",
          "120756.171000",
          "120756.171000",
          "120756.171000",
          "120756.171000",
          "120756.187000",
          "120756.187000",
          "120756.187000",
          "120756.187000",
          "120756.578000"
        ],
        "InstanceCreationTime": [
          "120056.156000",
          "120056.156000",
          "120056.156000",
          "120056.156000",
          "120056.156000",
          "120056.156000",
          "120056.171000",
          "120056.171000",
          "120056.171000",
          "120056.171000",
          "120056.171000",
          "120056.171000",
          "120056.187000",
          "120056.187000",
          "120056.187000",
          "120056.187000",
          "120056.187000",
          "120056.203000",
          "120056.203000",
          "120056.203000",
          "120056.203000",
          "120056.203000",
          "120056.203000",
          "120056.203000",
          "120056.203000",
          "120056.218000",
          "120056.218000",
          "120056.218000",
          "120056.218000",
          "120136.140000",
          "120136.156000",
          "120136.156000",
          "120136.156000",
          "120136.156000",
          "120136.156000",
          "120136.156000",
          "120136.156000",
          "120136.171000",
          "120136.171000",
          "120136.171000",
          "120136.171000",
          "120136.171000",
          "120136.171000",
          "120136.171000",
          "120136.171000",
          "120136.187000",
          "120136.187000",
          "120136.187000",
          "120136.187000",
          "120216.140000",
          "120216.156000",
          "120216.156000",
          "120216.156000",
          "120216.156000",
          "120216.156000",
          "120216.156000",
          "120216.156000",
          "120216.171000",
          "120216.171000",
          "120216.171000",
          "120216.171000",
          "120216.171000",
          "120216.187000",
          "120216.187000",
          "120216.187000",
          "120216.187000",
          "120216.187000",
          "120216.187000",
          "120216.187000",
          "120256.140000",
          "120256.156000",
          "120256.156000",
          "120256.156000",
          "120256.156000",
          "120256.156000",
          "120256.156000",
          "120256.156000",
          "120256.171000",
          "120256.171000",
          "120256.171000",
          "120256.171000",
          "120256.171000",
          "120256.171000",
          "120256.171000",
          "120256.171000",
          "120256.187000",
          "120256.187000",
          "120256.187000",
          "120256.187000",
          "120336.140000",
          "120336.156000",
          "120336.156000",
          "120336.156000",
          "120336.156000",
          "120336.156000",
          "120336.156000",
          "120336.156000",
          "120336.171000",
          "120336.171000",
          "120336.171000",
          "120336.171000",
          "120336.171000",
          "120336.171000",
          "120336.171000",
          "120336.171000",
          "120336.187000",
          "120336.187000",
          "120336.187000",
          "120336.187000",
          "120356.140000",
          "120356.156000",
          "120356.156000",
          "120356.156000",
          "120356.156000",
          "120356.156000",
          "120356.156000",
          "120356.156000",
          "120356.171000",
          "120356.171000",
          "120436.140000",
          "120436.156000",
          "120436.156000",
          "120436.156000",
          "120436.156000",
          "120436.156000",
          "120436.156000",
          "120436.156000",
          "120436.171000",
          "120436.171000",
          "120436.171000",
          "120436.171000",
          "120436.171000",
          "120436.171000",
          "120436.171000",
          "120436.171000",
          "120436.187000",
          "120436.187000",
          "120436.187000",
          "120436.187000",
          "120516.140000",
          "120516.156000",
          "120516.156000",
          "120516.156000",
          "120516.156000",
          "120516.156000",
          "120516.156000",
          "120516.156000",
          "120516.171000",
          "120516.171000",
          "120516.171000",
          "120516.171000",
          "120516.171000",
          "120516.171000",
          "120516.171000",
          "120516.171000",
          "120516.187000",
          "120516.187000",
          "120516.187000",
          "120516.187000",
          "120556.140000",
          "120556.156000",
          "120556.156000",
          "120556.156000",
          "120556.156000",
          "120556.156000",
          "120556.156000",
          "120556.156000",
          "120556.171000",
          "120556.171000",
          "120556.171000",
          "120556.171000",
          "120556.171000",
          "120556.187000",
          "120556.187000",
          "120556.187000",
          "120556.187000",
          "120556.187000",
          "120556.187000",
          "120556.187000",
          "120636.140000",
          "120636.156000",
          "120636.156000",
          "120636.156000",
          "120636.156000",
          "120636.156000",
          "120636.156000",
          "120636.156000",
          "120636.171000",
          "120636.171000",
          "120636.171000",
          "120636.171000",
          "120636.171000",
          "120636.171000",
          "120636.171000",
          "120636.171000",
          "120636.187000",
          "120636.187000",
          "120636.187000",
          "120636.187000",
          "120716.140000",
          "120716.156000",
          "120716.156000",
          "120716.156000",
          "120716.156000",
          "120716.156000",
          "120716.156000",
          "120716.156000",
          "120716.171000",
          "120716.171000",
          "120716.171000",
          "120716.171000",
          "120716.171000",
          "120716.171000",
          "120716.171000",
          "120716.171000",
          "120716.187000",
          "120716.187000",
          "120716.187000",
          "120716.187000",
          "120756.140000",
          "120756.156000",
          "120756.156000",
          "120756.156000",
          "120756.156000",
          "120756.156000",
          "120756.156000",
          "120756.156000",
          "120756.171000",
          "120756.171000",
          "120756.171000",
          "120756.171000",
          "120756.171000",
          "120756.171000",
          "120756.171000",
          "120756.171000",
          "120756.187000",
          "120756.187000",
          "120756.187000",
          "120756.187000",
          "120756.578000"
        ],
        "InstanceNumber": [
          1,
          2,
          3,
          4,
          5,
          6,
          7,
          8,
          9,
          10,
          11,
          12,
          13,
          14,
          15,
          16,
          17,
          18,
          19,
          20,
          21,
          22,
          23,
          24,
          25,
          26,
          27,
          28,
          29,
          30,
          31,
          32,
          33,
          34,
          35,
          36,
          37,
          38,
          39,
          40,
          41,
          42,
          43,
          44,
          45,
          46,
