{
  "aor": 0.0029692916666666665,
  "aqi": 0.014006095541666668,
  "bids_meta": {
    "AcquisitionMatrixPE": 68,
    "AcquisitionNumber": 1,
    "AcquisitionTime": "12:18:30.692500",
    "BandwidthPerPixelPhaseEncode": 31.289,
    "BaseResolution": 68,
    "CogAtlasID": "TODO",
    "CoilString": "C:HEA;HEP",
    "ConversionSoftware": "dcm2niix",
    "ConversionSoftwareVersion": "v1.0.20190902",
    "DerivedVendorReportedEchoSpacing": 0.000470002,
    "DeviceSerialNumber": "35450",
    "DwellTime": 3e-06,
    "EchoTime": 0.023,
    "EffectiveEchoSpacing": 0.000470002,
    "FlipAngle": 76,
    "ImageOrientationPatientDICOM": [
      0.999962,
      -0.00175471,
      -0.0085483,
      7.97262e-10,
      0.979575,
      -0.201078
    ],
    "ImageType": [
      "ORIGINAL",
      "PRIMARY",
      "M",
      "ND",
      "MOSAIC"
    ],
    "ImagingFrequency": 123.219,
    "InPlanePhaseEncodingDirectionDICOM": "COL",
    "InstitutionAddress": "Univeristy_Ave._197_Newark_North_East_US_07102-1814",
    "InstitutionName": "RUBIC",
    "InstitutionalDepartmentName": "Department",
    "MRAcquisitionType": "2D",
    "MagneticFieldStrength": 3,
    "Manufacturer": "Siemens",
    "ManufacturersModelName": "TrioTim",
    "Modality": "MR",
    "PartialFourier": 1,
    "PatientPosition": "HFS",
    "PercentPhaseFOV": 100,
    "PhaseEncodingDirection": "j-",
    "PhaseEncodingSteps": 68,
    "PhaseResolution": 1,
    "PixelBandwidth": 2451,
    "ProcedureStepDescription": "Krekelberg_David",
    "ProtocolName": "ep2d_bold_RestEPI_2",
    "PulseSequenceDetails": "%SiemensSeq%_ep2d_bold",
    "ReceiveCoilName": "HeadMatrix",
    "ReconMatrixPE": 68,
    "RepetitionTime": 2,
    "SAR": 0.174804,
    "ScanOptions": "FS",
    "ScanningSequence": "EP",
    "SequenceName": "_epfid2d1_68",
    "SequenceVariant": "SK",
    "SeriesDescription": "ep2d_bold_RestEPI_2",
    "SeriesNumber": 8,
    "ShimSetting": [
      1928,
      -532,
      -7516,
      944,
      40,
      320,
      -270,
      3
    ],
    "SliceThickness": 2.5,
    "SliceTiming": [
      1.9525,
      1.895,
      1.84,
      1.785,
      1.7275,
      1.6725,
      1.6175,
      1.56,
      1.505,
      1.45,
      1.395,
      1.3375,
      1.2825,
      1.2275,
      1.17,
      1.115,
      1.06,
      1.0025,
      0.9475,
      0.8925,
      0.8375,
      0.78,
      0.725,
      0.67,
      0.6125,
      0.5575,
      0.5025,
      0.445,
      0.39,
      0.335,
      0.2775,
      0.2225,
      0.1675,
      0.1125,
      0.055,
      0
    ],
    "SoftwareVersions": "syngo_MR_B19",
    "SpacingBetweenSlices": 3,
    "StationName": "MRC35450",
    "TaskName": "rest",
    "TotalReadoutTime": 0.0314901,
    "TxRefAmp": 355.767,
    "dataset": "<unset>",
    "dcmmeta_affine": [
      [
        -2.9998857975006104,
        2.3917861025068987e-09,
        -0.026179609820246696,
        101.09832763671875
      ],
      [
        0.00526414392516017,
        2.938725709915161,
        -0.6032108068466187,
        -68.29327392578125
      ],
      [
        -0.025644896551966667,
        0.6032337546348572,
        2.9386138916015625,
        -41.30774688720703
      ],
      [
        0.0,
        0.0,
        0.0,
        1.0
      ]
    ],
    "dcmmeta_reorient_transform": [
      [
        0.0,
        -1.0,
        0.0,
        67.0
      ],
      [
        1.0,
        0.0,
        0.0,
        0.0
      ],
      [
        0.0,
        0.0,
        1.0,
        0.0
      ],
      [
        0.0,
        0.0,
        0.0,
        1.0
      ]
    ],
    "dcmmeta_shape": [
      68,
      68,
      36,
      240
    ],
    "dcmmeta_slice_dim": 2,
    "dcmmeta_version": 0.6,
    "global": {
      "const": {
        "AcquisitionMatrix": [
          68,
          0,
          0,
          68
        ],
        "AngioFlag": "N",
        "BitsAllocated": 16,
        "BitsStored": 12,
        "Columns": 408,
        "EchoNumbers": 1,
        "EchoTime": 23.0,
        "EchoTrainLength": 1,
        "FlipAngle": 76.0,
        "HighBit": 11,
        "ImageOrientationPatient": [
          0.99996192305518,
          -0.0017547146441,
          -0.00854829903,
          7.97262e-10,
          0.97957524867894,
          -0.2010779256298
        ],
        "ImagePositionPatient": [
          -611.07890827702,
          -627.28982001231,
          106.01829264366
        ],
        "ImageType": [
          "ORIGINAL",
          "PRIMARY",
          "M",
          "ND",
          "MOSAIC"
        ],
        "ImagedNucleus": "1H",
        "ImagingFrequency": 123.218511,
        "InPlanePhaseEncodingDirection": "COL",
        "MRAcquisitionType": "2D",
        "MagneticFieldStrength": 3.0,
        "Manufacturer": "SIEMENS",
        "ManufacturerModelName": "TrioTim",
        "Modality": "MR",
        "NumberOfAverages": 1.0,
        "NumberOfPhaseEncodingSteps": 68,
        "PercentPhaseFieldOfView": 100.0,
        "PercentSampling": 100.0,
        "PerformedProcedureStepStartTime": "113039.203000",
        "PhotometricInterpretation": "MONOCHROME2",
        "PixelBandwidth": 2451.0,
        "PixelRepresentation": 0,
        "PixelSpacing": [
          3.0,
          3.0
        ],
        "ProtocolName": "ep2d_bold_RestEPI_2",
        "RepetitionTime": 2000.0,
        "Rows": 408,
        "SAR": 0.17480416248986,
        "SamplesPerPixel": 1,
        "ScanOptions": "FS",
        "ScanningSequence": "EP",
        "SequenceName": "*epfid2d1_68",
        "SequenceVariant": "SK",
        "SeriesDescription": "ep2d_bold_RestEPI_2",
        "SeriesNumber": 8,
        "SeriesTime": "121915.609000",
        "SliceLocation": -27.612994404918,
        "SliceThickness": 2.5,
        "SmallestImagePixelValue": 0,
        "SoftwareVersions": "syngo MR B19",
        "SpacingBetweenSlices": 3.0000000387776,
        "SpecificCharacterSet": "ISO_IR 100",
        "StudyID": "1",
        "StudyTime": "113039.156000",
        "TransmitCoilName": "Body",
        "VariableFlipAngleFlag": "N",
        "WindowCenterWidthExplanation": "Algo1",
        "dBdt": 0.0
      },
      "slices": {}
    },
    "modality": "bold",
    "run_id": 2,
    "subject_id": "227",
    "task_id": "rest",
    "time": {
      "samples": {
        "AcquisitionNumber": [
          1,
          2,
          3,
          4,
          5,
          6,
          7,
          8,
          9,
          10,
          11,
          12,
          13,
          14,
          15,
          16,
          17,
          18,
          19,
          20,
          21,
          22,
          23,
          24,
          25,
          26,
          27,
          28,
          29,
          30,
          31,
          32,
          33,
          34,
          35,
          36,
          37,
          38,
          39,
          40,
          41,
          42,
          43,
          44,
          45,
          46,
          47,
          48,
          49,
          50,
          51,
          52,
          53,
          54,
          55,
          56,
          57,
          58,
          59,
          60,
          61,
          62,
          63,
          64,
          65,
          66,
          67,
          68,
          69,
          70,
          71,
          72,
          73,
          74,
          75,
          76,
          77,
          78,
          79,
          80,
          81,
          82,
          83,
          84,
          85,
          86,
          87,
          88,
          89,
          90,
          91,
          92,
          93,
          94,
          95,
          96,
          97,
          98,
          99,
          100,
          101,
          102,
          103,
          104,
          105,
          106,
          107,
          108,
          109,
          110,
          111,
          112,
          113,
          114,
          115,
          116,
          117,
          118,
          119,
          120,
          121,
          122,
          123,
          124,
          125,
          126,
          127,
          128,
          129,
          130,
          131,
          132,
          133,
          134,
          135,
          136,
          137,
          138,
          139,
          140,
          141,
          142,
          143,
          144,
          145,
          146,
          147,
          148,
          149,
          150,
          151,
          152,
          153,
          154,
          155,
          156,
          157,
          158,
          159,
          160,
          161,
          162,
          163,
          164,
          165,
          166,
          167,
          168,
          169,
          170,
          171,
          172,
          173,
          174,
          175,
          176,
          177,
          178,
          179,
          180,
          181,
          182,
          183,
          184,
          185,
          186,
          187,
          188,
          189,
          190,
          191,
          192,
          193,
          194,
          195,
          196,
          197,
          198,
          199,
          200,
          201,
          202,
          203,
          204,
          205,
          206,
          207,
          208,
          209,
          210,
          211,
          212,
          213,
          214,
          215,
          216,
          217,
          218,
          219,
          220,
          221,
          222,
          223,
          224,
          225,
          226,
          227,
          228,
          229,
          230,
          231,
          232,
          233,
          234,
          235,
          236,
          237,
          238,
          239,
          240
        ],
        "AcquisitionTime": [
          "121830.692500",
          "121832.700000",
          "121834.707500",
          "121836.715000",
          "121838.722500",
          "121840.732500",
          "121842.740000",
          "121844.747500",
          "121846.755000",
          "121848.765000",
          "121850.772500",
          "121852.780000",
          "121854.787500",
          "121856.795000",
          "121858.805000",
          "121900.812500",
          "121902.820000",
          "121904.827500",
          "121906.835000",
          "121908.845000",
          "121910.852500",
          "121912.860000",
          "121914.867500",
          "121916.877500",
          "121918.885000",
          "121920.892500",
          "121922.900000",
          "121924.907500",
          "121926.917500",
          "121928.925000",
          "121930.932500",
          "121932.940000",
          "121934.947500",
          "121936.957500",
          "121938.965000",
          "121940.972500",
          "121942.980000",
          "121944.990000",
          "121946.997500",
          "121949.005000",
          "121951.012500",
          "121953.020000",
          "121955.030000",
          "121957.037500",
          "121959.045000",
          "122001.052500",
          "122003.060000",
          "122005.070000",
          "122007.077500",
          "122009.085000",
          "122011.092500",
          "122013.100000",
          "122015.110000",
          "122017.117500",
          "122019.125000",
          "122021.132500",
          "122023.142500",
          "122025.150000",
          "122027.157500",
          "122029.165000",
          "122031.172500",
          "122033.182500",
          "122035.190000",
          "122037.197500",
          "122039.205000",
          "122041.212500",
          "122043.222500",
          "122045.230000",
          "122047.237500",
          "122049.245000",
          "122051.255000",
          "122053.262500",
          "122055.270000",
          "122057.277500",
          "122059.285000",
          "122101.295000",
          "122103.302500",
          "122105.310000",
          "122107.317500",
          "122109.325000",
          "122111.335000",
          "122113.342500",
          "122115.350000",
          "122117.357500",
          "122119.367500",
          "122121.375000",
          "122123.382500",
          "122125.390000",
          "122127.397500",
          "122129.407500",
          "122131.415000",
          "122133.422500",
          "122135.430000",
          "122137.437500",
          "122139.447500",
          "122141.455000",
          "122143.462500",
          "122145.470000",
          "122147.477500",
          "122149.487500",
          "122151.495000",
          "122153.502500",
          "122155.510000",
          "122157.520000",
          "122159.527500",
          "122201.535000",
          "122203.542500",
          "122205.550000",
          "122207.560000",
          "122209.567500",
          "122211.575000",
          "122213.582500",
          "122215.590000",
          "122217.600000",
          "122219.607500",
          "122221.615000",
          "122223.622500",
          "122225.632500",
          "122227.640000",
          "122229.647500",
          "122231.655000",
          "122233.662500",
          "122235.672500",
          "122237.680000",
          "122239.687500",
          "122241.695000",
          "122243.702500",
          "122245.712500",
          "122247.720000",
          "122249.727500",
          "122251.735000",
          "122253.745000",
          "122255.752500",
          "122257.760000",
          "122259.767500",
          "122301.775000",
          "122303.785000",
          "122305.792500",
          "122307.800000",
          "122309.807500",
          "122311.815000",
          "122313.825000",
          "122315.832500",
          "122317.840000",
          "122319.847500",
          "122321.855000",
          "122323.865000",
          "122325.872500",
          "122327.880000",
          "122329.887500",
          "122331.897500",
          "122333.905000",
          "122335.912500",
          "122337.920000",
          "122339.927500",
          "122341.937500",
          "122343.945000",
          "122345.952500",
          "122347.960000",
          "122349.967500",
          "122351.977500",
          "122353.985000",
          "122355.992500",
          "122358.000000",
          "122400.010000",
          "122402.017500",
          "122404.025000",
          "122406.032500",
          "122408.040000",
          "122410.050000",
          "122412.057500",
          "122414.065000",
          "122416.072500",
          "122418.080000",
          "122420.090000",
          "122422.097500",
          "122424.105000",
          "122426.112500",
          "122428.122500",
          "122430.130000",
          "122432.137500",
          "122434.145000",
          "122436.152500",
          "122438.162500",
          "122440.170000",
          "122442.177500",
          "122444.185000",
          "122446.192500",
          "122448.202500",
          "122450.210000",
          "122452.217500",
          "122454.225000",
          "122456.235000",
          "122458.242500",
          "122500.250000",
          "122502.257500",
          "122504.265000",
          "122506.275000",
          "122508.282500",
          "122510.290000",
          "122512.297500",
          "122514.305000",
          "122516.315000",
          "122518.322500",
          "122520.330000",
          "122522.337500",
          "122524.345000",
          "122526.355000",
          "122528.362500",
          "122530.370000",
          "122532.377500",
          "122534.387500",
          "122536.395000",
          "122538.402500",
          "122540.410000",
          "122542.417500",
          "122544.427500",
          "122546.435000",
          "122548.442500",
          "122550.450000",
          "122552.457500",
          "122554.467500",
          "122556.475000",
          "122558.482500",
          "122600.490000",
          "122602.500000",
          "122604.507500",
          "122606.515000",
          "122608.522500",
          "122610.530000",
          "122612.540000",
          "122614.547500",
          "122616.555000",
          "122618.562500",
          "122620.570000",
          "122622.580000",
          "122624.587500",
          "122626.595000",
          "122628.602500",
          "122630.612500"
        ],
        "ContentTime": [
          "121915.625000",
          "121915.625000",
          "121915.625000",
          "121915.625000",
          "121915.640000",
          "121915.640000",
          "121915.640000",
          "121915.640000",
          "121915.640000",
          "121915.640000",
          "121915.640000",
          "121915.656000",
          "121915.656000",
          "121915.656000",
          "121915.656000",
          "121915.656000",
          "121915.656000",
          "121915.671000",
          "121915.671000",
          "121915.671000",
          "121915.671000",
          "121915.671000",
          "121955.609000",
          "121955.625000",
          "121955.625000",
          "121955.625000",
          "121955.625000",
          "121955.640000",
          "121955.640000",
          "121955.640000",
          "121955.640000",
          "121955.640000",
          "121955.640000",
          "121955.640000",
          "121955.656000",
          "121955.656000",
          "121955.656000",
          "121955.656000",
          "121955.656000",
          "121955.656000",
          "121955.656000",
          "121955.671000",
          "122035.609000",
          "122035.625000",
          "122035.625000",
          "122035.625000",
          "122035.625000",
          "122035.625000",
          "122035.625000",
          "122035.625000",
          "122035.625000",
          "122035.640000",
          "122035.640000",
          "122035.640000",
          "122035.640000",
          "122035.640000",
          "122035.640000",
          "122035.640000",
          "122035.656000",
          "122035.656000",
          "122035.656000",
          "122035.656000",
          "122115.609000",
          "122115.625000",
          "122115.625000",
          "122115.625000",
          "122115.625000",
          "122115.625000",
          "122115.640000",
          "122115.640000",
          "122115.640000",
          "122115.640000",
          "122115.640000",
          "122115.640000",
          "122115.656000",
          "122115.656000",
          "122115.656000",
          "122115.656000",
          "122115.656000",
          "122115.656000",
          "122115.656000",
          "122115.671000",
          "122155.609000",
          "122155.625000",
          "122155.625000",
          "122155.625000",
          "122155.625000",
          "122155.625000",
          "122155.625000",
          "122155.640000",
          "122155.640000",
          "122155.640000",
          "122155.640000",
          "122155.640000",
          "122155.640000",
          "122155.640000",
          "122155.656000",
          "122155.656000",
          "122155.656000",
          "122155.656000",
          "122155.656000",
          "122155.656000",
          "122235.609000",
          "122235.625000",
          "122235.625000",
          "122235.625000",
          "122235.625000",
          "122235.625000",
          "122235.640000",
          "122235.640000",
          "122235.640000",
          "122235.640000",
          "122235.640000",
          "122235.640000",
          "122235.640000",
          "122235.656000",
          "122235.656000",
          "122235.656000",
          "122235.656000",
          "122235.656000",
          "122235.656000",
          "122235.656000",
          "122315.609000",
          "122315.625000",
          "122315.625000",
          "122315.625000",
          "122315.625000",
          "122315.625000",
          "122315.625000",
          "122315.625000",
          "122315.640000",
          "122315.640000",
          "122315.640000",
          "122315.640000",
          "122315.640000",
          "122315.640000",
          "122315.640000",
          "122315.640000",
          "122315.656000",
          "122315.656000",
          "122315.656000",
          "122315.656000",
          "122355.609000",
          "122355.625000",
          "122355.625000",
          "122355.625000",
          "122355.625000",
          "122355.625000",
          "122355.625000",
          "122355.625000",
          "122355.640000",
          "122355.640000",
          "122355.640000",
          "122355.640000",
          "122355.656000",
          "122355.656000",
          "122355.656000",
          "122355.656000",
          "122355.656000",
          "122355.656000",
          "122355.656000",
          "122355.671000",
          "122415.609000",
          "122415.625000",
          "122415.625000",
          "122415.625000",
          "122415.625000",
          "122415.625000",
          "122415.625000",
          "122415.640000",
          "122415.640000",
          "122415.640000",
          "122455.609000",
          "122455.625000",
          "122455.625000",
          "122455.625000",
          "122455.625000",
          "122455.625000",
          "122455.640000",
          "122455.640000",
          "122455.640000",
          "122455.640000",
          "122455.640000",
          "122455.640000",
          "122455.656000",
          "122455.656000",
          "122455.656000",
          "122455.656000",
          "122455.656000",
          "122455.656000",
          "122455.671000",
          "122455.671000",
          "122535.609000",
          "122535.625000",
          "122535.625000",
          "122535.625000",
          "122535.625000",
          "122535.625000",
          "122535.640000",
          "122535.640000",
          "122535.640000",
          "122535.640000",
          "122535.640000",
          "122535.640000",
          "122535.640000",
          "122535.656000",
          "122535.656000",
          "122535.656000",
          "122535.656000",
          "122535.656000",
          "122535.656000",
          "122535.656000",
          "122615.609000",
          "122615.625000",
          "122615.625000",
          "122615.625000",
          "122615.625000",
          "122615.625000",
          "122615.625000",
          "122615.625000",
          "122615.640000",
          "122615.640000",
          "122615.640000",
          "122615.640000",
          "122615.640000",
          "122615.640000",
          "122615.656000",
          "122615.656000",
          "122615.656000",
          "122615.656000",
          "122615.656000",
          "122615.656000",
          "122629.609000",
          "122629.625000",
          "122629.625000",
          "122629.625000",
          "122629.625000",
          "122629.625000",
          "122629.625000",
          "122629.625000"
        ],
        "InstanceCreationTime": [
          "121915.625000",
          "121915.625000",
          "121915.625000",
          "121915.625000",
          "121915.640000",
          "121915.640000",
          "121915.640000",
          "121915.640000",
          "121915.640000",
          "121915.640000",
          "121915.640000",
          "121915.656000",
          "121915.656000",
          "121915.656000",
          "121915.656000",
          "121915.656000",
          "121915.656000",
          "121915.671000",
          "121915.671000",
          "121915.671000",
          "121915.671000",
          "121915.671000",
          "121955.609000",
          "121955.625000",
          "121955.625000",
          "121955.625000",
          "121955.625000",
          "121955.640000",
          "121955.640000",
          "121955.640000",
          "121955.640000",
          "121955.640000",
          "121955.640000",
          "121955.640000",
          "121955.656000",
          "121955.656000",
          "121955.656000",
          "121955.656000",
          "121955.656000",
          "121955.656000",
          "121955.656000",
          "121955.671000",
          "122035.609000",
          "122035.625000",
          "122035.625000",
          "122035.625000",
          "122035.625000",
          "122035.625000",
          "122035.625000",
          "122035.625000",
          "122035.625000",
          "122035.640000",
          "122035.640000",
          "122035.640000",
          "122035.640000",
          "122035.640000",
          "122035.640000",
          "122035.640000",
          "122035.656000",
          "122035.656000",
          "122035.656000",
          "122035.656000",
          "122115.609000",
          "122115.625000",
          "122115.625000",
          "122115.625000",
          "122115.625000",
          "122115.625000",
          "122115.640000",
          "122115.640000",
          "122115.640000",
          "122115.640000",
          "122115.640000",
          "122115.640000",
          "122115.656000",
          "122115.656000",
          "122115.656000",
          "122115.656000",
          "122115.656000",
          "122115.656000",
          "122115.656000",
          "122115.671000",
          "122155.609000",
          "122155.625000",
          "122155.625000",
          "122155.625000",
          "122155.625000",
          "122155.625000",
          "122155.625000",
          "122155.640000",
          "122155.640000",
          "122155.640000",
          "122155.640000",
          "122155.640000",
          "122155.640000",
          "122155.640000",
          "122155.656000",
          "122155.656000",
          "122155.656000",
          "122155.656000",
          "122155.656000",
          "122155.656000",
          "122235.609000",
          "122235.625000",
          "122235.625000",
          "122235.625000",
          "122235.625000",
          "122235.625000",
          "122235.640000",
          "122235.640000",
          "122235.640000",
          "122235.640000",
          "122235.640000",
          "122235.640000",
          "122235.640000",
          "122235.656000",
          "122235.656000",
          "122235.656000",
          "122235.656000",
          "122235.656000",
          "122235.656000",
          "122235.656000",
          "122315.609000",
          "122315.625000",
          "122315.625000",
          "122315.625000",
          "122315.625000",
          "122315.625000",
          "122315.625000",
          "122315.625000",
          "122315.640000",
          "122315.640000",
          "122315.640000",
          "122315.640000",
          "122315.640000",
          "122315.640000",
          "122315.640000",
          "122315.640000",
          "122315.656000",
          "122315.656000",
          "122315.656000",
          "122315.656000",
          "122355.609000",
          "122355.625000",
          "122355.625000",
          "122355.625000",
          "122355.625000",
          "122355.625000",
          "122355.625000",
          "122355.625000",
          "122355.640000",
          "122355.640000",
          "122355.640000",
          "122355.640000",
          "122355.656000",
          "122355.656000",
          "122355.656000",
          "122355.656000",
          "122355.656000",
          "122355.656000",
          "122355.656000",
          "122355.671000",
          "122415.609000",
          "122415.625000",
          "122415.625000",
          "122415.625000",
          "122415.625000",
          "122415.625000",
          "122415.625000",
          "122415.640000",
          "122415.640000",
          "122415.640000",
          "122455.609000",
          "122455.625000",
          "122455.625000",
          "122455.625000",
          "122455.625000",
          "122455.625000",
          "122455.640000",
          "122455.640000",
          "122455.640000",
          "122455.640000",
          "122455.640000",
          "122455.640000",
          "122455.656000",
          "122455.656000",
          "122455.656000",
          "122455.656000",
          "122455.656000",
          "122455.656000",
          "122455.671000",
          "122455.671000",
          "122535.609000",
          "122535.625000",
          "122535.625000",
          "122535.625000",
          "122535.625000",
          "122535.625000",
          "122535.640000",
          "122535.640000",
          "122535.640000",
          "122535.640000",
          "122535.640000",
          "122535.640000",
          "122535.640000",
          "122535.656000",
          "122535.656000",
          "122535.656000",
          "122535.656000",
          "122535.656000",
          "122535.656000",
          "122535.656000",
          "122615.609000",
          "122615.625000",
          "122615.625000",
          "122615.625000",
          "122615.625000",
          "122615.625000",
          "122615.625000",
          "122615.625000",
          "122615.640000",
          "122615.640000",
          "122615.640000",
          "122615.640000",
          "122615.640000",
          "122615.640000",
          "122615.656000",
          "122615.656000",
          "122615.656000",
          "122615.656000",
          "122615.656000",
          "122615.656000",
          "122629.609000",
          "122629.625000",
          "122629.625000",
          "122629.625000",
          "122629.625000",
          "122629.625000",
          "122629.625000",
          "122629.625000"
        ],
        "InstanceNumber": [
          1,
          2,
          3,
          4,
          5,
          6,
          7,
          8,
          9,
          10,
          11,
          12,
          13,
          14,
          15,
          16,
          17,
          18,
          19,
          20,
          21,
          22,
          23,
          24,
          25,
          26,
          27,
          28,
          29,
          30,
          31,
          32,
          33,
          34,
          35,
          36,
          37,
          38,
          39,
          40,
          41,
          42,
          43,
          44,
          45,
          46,
