{
  "aor": 0.0025326359832635982,
  "aqi": 0.013744355648535564,
  "bids_meta": {
    "AcquisitionMatrixPE": 68,
    "AcquisitionNumber": 1,
    "AcquisitionTime": "12:36:55.050000",
    "BandwidthPerPixelPhaseEncode": 31.289,
    "BaseResolution": 68,
    "CogAtlasID": "TODO",
    "CoilString": "C:HEA;HEP",
    "ConversionSoftware": "dcm2niix",
    "ConversionSoftwareVersion": "v1.0.20190902",
    "DerivedVendorReportedEchoSpacing": 0.000470002,
    "DeviceSerialNumber": "35450",
    "DwellTime": 3e-06,
    "EchoTime": 0.023,
    "EffectiveEchoSpacing": 0.000470002,
    "FlipAngle": 76,
    "ImageOrientationPatientDICOM": [
      0.999962,
      -0.00175471,
      -0.0085483,
      7.97262e-10,
      0.979575,
      -0.201078
    ],
    "ImageType": [
      "ORIGINAL",
      "PRIMARY",
      "M",
      "ND",
      "MOSAIC"
    ],
    "ImagingFrequency": 123.219,
    "InPlanePhaseEncodingDirectionDICOM": "COL",
    "InstitutionAddress": "Univeristy_Ave._197_Newark_North_East_US_07102-1814",
    "InstitutionName": "RUBIC",
    "InstitutionalDepartmentName": "Department",
    "MRAcquisitionType": "2D",
    "MagneticFieldStrength": 3,
    "Manufacturer": "Siemens",
    "ManufacturersModelName": "TrioTim",
    "Modality": "MR",
    "PartialFourier": 1,
    "PatientPosition": "HFS",
    "PercentPhaseFOV": 100,
    "PhaseEncodingDirection": "j-",
    "PhaseEncodingSteps": 68,
    "PhaseResolution": 1,
    "PixelBandwidth": 2451,
    "ProcedureStepDescription": "Krekelberg_David",
    "ProtocolName": "ep2d_bold_RestEPI_4",
    "PulseSequenceDetails": "%SiemensSeq%_ep2d_bold",
    "ReceiveCoilName": "HeadMatrix",
    "ReconMatrixPE": 68,
    "RepetitionTime": 2,
    "SAR": 0.174804,
    "ScanOptions": "FS",
    "ScanningSequence": "EP",
    "SequenceName": "_epfid2d1_68",
    "SequenceVariant": "SK",
    "SeriesDescription": "ep2d_bold_RestEPI_4",
    "SeriesNumber": 10,
    "ShimSetting": [
      1928,
      -532,
      -7516,
      944,
      40,
      320,
      -270,
      3
    ],
    "SliceThickness": 2.5,
    "SliceTiming": [
      1.9525,
      1.895,
      1.84,
      1.785,
      1.73,
      1.6725,
      1.6175,
      1.5625,
      1.505,
      1.45,
      1.395,
      1.3375,
      1.2825,
      1.2275,
      1.1725,
      1.115,
      1.06,
      1.005,
      0.9475,
      0.8925,
      0.8375,
      0.78,
      0.725,
      0.67,
      0.6125,
      0.5575,
      0.5025,
      0.4475,
      0.39,
      0.335,
      0.28,
      0.2225,
      0.1675,
      0.1125,
      0.055,
      0
    ],
    "SoftwareVersions": "syngo_MR_B19",
    "SpacingBetweenSlices": 3,
    "StationName": "MRC35450",
    "TaskName": "rest",
    "TotalReadoutTime": 0.0314901,
    "TxRefAmp": 355.767,
    "dataset": "<unset>",
    "dcmmeta_affine": [
      [
        -2.9998857975006104,
        2.3917861025068987e-09,
        -0.026179609820246696,
        101.09832763671875
      ],
      [
        0.00526414392516017,
        2.938725709915161,
        -0.6032108068466187,
        -68.29327392578125
      ],
      [
        -0.025644896551966667,
        0.6032337546348572,
        2.9386138916015625,
        -41.30774688720703
      ],
      [
        0.0,
        0.0,
        0.0,
        1.0
      ]
    ],
    "dcmmeta_reorient_transform": [
      [
        0.0,
        -1.0,
        0.0,
        67.0
      ],
      [
        1.0,
        0.0,
        0.0,
        0.0
      ],
      [
        0.0,
        0.0,
        1.0,
        0.0
      ],
      [
        0.0,
        0.0,
        0.0,
        1.0
      ]
    ],
    "dcmmeta_shape": [
      68,
      68,
      36,
      240
    ],
    "dcmmeta_slice_dim": 2,
    "dcmmeta_version": 0.6,
    "global": {
      "const": {
        "AcquisitionMatrix": [
          68,
          0,
          0,
          68
        ],
        "AngioFlag": "N",
        "BitsAllocated": 16,
        "BitsStored": 12,
        "Columns": 408,
        "EchoNumbers": 1,
        "EchoTime": 23.0,
        "EchoTrainLength": 1,
        "FlipAngle": 76.0,
        "HighBit": 11,
        "ImageOrientationPatient": [
          0.99996192305518,
          -0.0017547146441,
          -0.00854829903,
          7.97262e-10,
          0.97957524867894,
          -0.2010779256298
        ],
        "ImagePositionPatient": [
          -611.07890827702,
          -627.28982001231,
          106.01829264366
        ],
        "ImageType": [
          "ORIGINAL",
          "PRIMARY",
          "M",
          "ND",
          "MOSAIC"
        ],
        "ImagedNucleus": "1H",
        "ImagingFrequency": 123.218536,
        "InPlanePhaseEncodingDirection": "COL",
        "MRAcquisitionType": "2D",
        "MagneticFieldStrength": 3.0,
        "Manufacturer": "SIEMENS",
        "ManufacturerModelName": "TrioTim",
        "Modality": "MR",
        "NumberOfAverages": 1.0,
        "NumberOfPhaseEncodingSteps": 68,
        "PercentPhaseFieldOfView": 100.0,
        "PercentSampling": 100.0,
        "PerformedProcedureStepStartTime": "113039.203000",
        "PhotometricInterpretation": "MONOCHROME2",
        "PixelBandwidth": 2451.0,
        "PixelRepresentation": 0,
        "PixelSpacing": [
          3.0,
          3.0
        ],
        "ProtocolName": "ep2d_bold_RestEPI_4",
        "RepetitionTime": 2000.0,
        "Rows": 408,
        "SAR": 0.17480416248986,
        "SamplesPerPixel": 1,
        "ScanOptions": "FS",
        "ScanningSequence": "EP",
        "SequenceName": "*epfid2d1_68",
        "SequenceVariant": "SK",
        "SeriesDescription": "ep2d_bold_RestEPI_4",
        "SeriesNumber": 10,
        "SeriesTime": "123745.218000",
        "SliceLocation": -27.612994404918,
        "SliceThickness": 2.5,
        "SmallestImagePixelValue": 0,
        "SoftwareVersions": "syngo MR B19",
        "SpacingBetweenSlices": 3.0000000387776,
        "SpecificCharacterSet": "ISO_IR 100",
        "StudyID": "1",
        "StudyTime": "113039.156000",
        "TransmitCoilName": "Body",
        "VariableFlipAngleFlag": "N",
        "WindowCenterWidthExplanation": "Algo1",
        "dBdt": 0.0
      },
      "slices": {}
    },
    "modality": "bold",
    "run_id": 4,
    "subject_id": "227",
    "task_id": "rest",
    "time": {
      "samples": {
        "AcquisitionNumber": [
          1,
          2,
          3,
          4,
          5,
          6,
          7,
          8,
          9,
          10,
          11,
          12,
          13,
          14,
          15,
          16,
          17,
          18,
          19,
          20,
          21,
          22,
          23,
          24,
          25,
          26,
          27,
          28,
          29,
          30,
          31,
          32,
          33,
          34,
          35,
          36,
          37,
          38,
          39,
          40,
          41,
          42,
          43,
          44,
          45,
          46,
          47,
          48,
          49,
          50,
          51,
          52,
          53,
          54,
          55,
          56,
          57,
          58,
          59,
          60,
          61,
          62,
          63,
          64,
          65,
          66,
          67,
          68,
          69,
          70,
          71,
          72,
          73,
          74,
          75,
          76,
          77,
          78,
          79,
          80,
          81,
          82,
          83,
          84,
          85,
          86,
          87,
          88,
          89,
          90,
          91,
          92,
          93,
          94,
          95,
          96,
          97,
          98,
          99,
          100,
          101,
          102,
          103,
          104,
          105,
          106,
          107,
          108,
          109,
          110,
          111,
          112,
          113,
          114,
          115,
          116,
          117,
          118,
          119,
          120,
          121,
          122,
          123,
          124,
          125,
          126,
          127,
          128,
          129,
          130,
          131,
          132,
          133,
          134,
          135,
          136,
          137,
          138,
          139,
          140,
          141,
          142,
          143,
          144,
          145,
          146,
          147,
          148,
          149,
          150,
          151,
          152,
          153,
          154,
          155,
          156,
          157,
          158,
          159,
          160,
          161,
          162,
          163,
          164,
          165,
          166,
          167,
          168,
          169,
          170,
          171,
          172,
          173,
          174,
          175,
          176,
          177,
          178,
          179,
          180,
          181,
          182,
          183,
          184,
          185,
          186,
          187,
          188,
          189,
          190,
          191,
          192,
          193,
          194,
          195,
          196,
          197,
          198,
          199,
          200,
          201,
          202,
          203,
          204,
          205,
          206,
          207,
          208,
          209,
          210,
          211,
          212,
          213,
          214,
          215,
          216,
          217,
          218,
          219,
          220,
          221,
          222,
          223,
          224,
          225,
          226,
          227,
          228,
          229,
          230,
          231,
          232,
          233,
          234,
          235,
          236,
          237,
          238,
          239,
          240
        ],
        "AcquisitionTime": [
          "123655.050000",
          "123657.057500",
          "123659.065000",
          "123701.072500",
          "123703.082500",
          "123705.090000",
          "123707.097500",
          "123709.105000",
          "123711.112500",
          "123713.122500",
          "123715.130000",
          "123717.137500",
          "123719.145000",
          "123721.155000",
          "123723.162500",
          "123725.170000",
          "123727.177500",
          "123729.185000",
          "123731.195000",
          "123733.202500",
          "123735.210000",
          "123737.217500",
          "123739.225000",
          "123741.235000",
          "123743.242500",
          "123745.250000",
          "123747.257500",
          "123749.267500",
          "123751.275000",
          "123753.282500",
          "123755.290000",
          "123757.297500",
          "123759.307500",
          "123801.315000",
          "123803.322500",
          "123805.330000",
          "123807.337500",
          "123809.347500",
          "123811.355000",
          "123813.362500",
          "123815.370000",
          "123817.380000",
          "123819.387500",
          "123821.395000",
          "123823.402500",
          "123825.410000",
          "123827.420000",
          "123829.427500",
          "123831.435000",
          "123833.442500",
          "123835.450000",
          "123837.460000",
          "123839.467500",
          "123841.475000",
          "123843.482500",
          "123845.490000",
          "123847.500000",
          "123849.507500",
          "123851.515000",
          "123853.522500",
          "123855.532500",
          "123857.540000",
          "123859.547500",
          "123901.555000",
          "123903.562500",
          "123905.572500",
          "123907.580000",
          "123909.587500",
          "123911.595000",
          "123913.602500",
          "123915.612500",
          "123917.620000",
          "123919.627500",
          "123921.635000",
          "123923.645000",
          "123925.652500",
          "123927.660000",
          "123929.667500",
          "123931.675000",
          "123933.685000",
          "123935.692500",
          "123937.700000",
          "123939.707500",
          "123941.715000",
          "123943.725000",
          "123945.732500",
          "123947.740000",
          "123949.747500",
          "123951.757500",
          "123953.765000",
          "123955.772500",
          "123957.780000",
          "123959.787500",
          "124001.797500",
          "124003.805000",
          "124005.812500",
          "124007.820000",
          "124009.827500",
          "124011.837500",
          "124013.845000",
          "124015.852500",
          "124017.860000",
          "124019.867500",
          "124021.877500",
          "124023.885000",
          "124025.892500",
          "124027.900000",
          "124029.910000",
          "124031.917500",
          "124033.925000",
          "124035.932500",
          "124037.940000",
          "124039.950000",
          "124041.957500",
          "124043.965000",
          "124045.972500",
          "124047.980000",
          "124049.990000",
          "124051.997500",
          "124054.005000",
          "124056.012500",
          "124058.022500",
          "124100.030000",
          "124102.037500",
          "124104.045000",
          "124106.052500",
          "124108.062500",
          "124110.070000",
          "124112.077500",
          "124114.085000",
          "124116.092500",
          "124118.102500",
          "124120.110000",
          "124122.117500",
          "124124.125000",
          "124126.135000",
          "124128.142500",
          "124130.150000",
          "124132.157500",
          "124134.165000",
          "124136.175000",
          "124138.182500",
          "124140.190000",
          "124142.197500",
          "124144.205000",
          "124146.215000",
          "124148.222500",
          "124150.230000",
          "124152.237500",
          "124154.247500",
          "124156.255000",
          "124158.262500",
          "124200.270000",
          "124202.277500",
          "124204.287500",
          "124206.295000",
          "124208.302500",
          "124210.310000",
          "124212.317500",
          "124214.327500",
          "124216.335000",
          "124218.342500",
          "124220.350000",
          "124222.357500",
          "124224.367500",
          "124226.375000",
          "124228.382500",
          "124230.390000",
          "124232.400000",
          "124234.407500",
          "124236.415000",
          "124238.422500",
          "124240.430000",
          "124242.440000",
          "124244.447500",
          "124246.455000",
          "124248.462500",
          "124250.470000",
          "124252.480000",
          "124254.487500",
          "124256.495000",
          "124258.502500",
          "124300.512500",
          "124302.520000",
          "124304.527500",
          "124306.535000",
          "124308.542500",
          "124310.552500",
          "124312.560000",
          "124314.567500",
          "124316.575000",
          "124318.582500",
          "124320.592500",
          "124322.600000",
          "124324.607500",
          "124326.615000",
          "124328.625000",
          "124330.632500",
          "124332.640000",
          "124334.647500",
          "124336.655000",
          "124338.665000",
          "124340.672500",
          "124342.680000",
          "124344.687500",
          "124346.695000",
          "124348.705000",
          "124350.712500",
          "124352.720000",
          "124354.727500",
          "124356.735000",
          "124358.745000",
          "124400.752500",
          "124402.760000",
          "124404.767500",
          "124406.777500",
          "124408.785000",
          "124410.792500",
          "124412.800000",
          "124414.807500",
          "124416.817500",
          "124418.825000",
          "124420.832500",
          "124422.840000",
          "124424.847500",
          "124426.857500",
          "124428.865000",
          "124430.872500",
          "124432.880000",
          "124434.890000",
          "124436.897500",
          "124438.905000",
          "124440.912500",
          "124442.920000",
          "124444.930000",
          "124446.937500",
          "124448.945000",
          "124450.952500",
          "124452.960000",
          "124454.970000"
        ],
        "ContentTime": [
          "123745.218000",
          "123745.218000",
          "123745.218000",
          "123745.218000",
          "123745.218000",
          "123745.218000",
          "123745.234000",
          "123745.234000",
          "123745.234000",
          "123745.234000",
          "123745.234000",
          "123745.234000",
          "123745.234000",
          "123745.234000",
          "123745.250000",
          "123745.250000",
          "123745.250000",
          "123745.250000",
          "123745.250000",
          "123745.250000",
          "123745.250000",
          "123745.265000",
          "123745.265000",
          "123745.265000",
          "123745.265000",
          "123825.203000",
          "123825.218000",
          "123825.218000",
          "123825.218000",
          "123825.218000",
          "123825.218000",
          "123825.218000",
          "123825.218000",
          "123825.234000",
          "123825.234000",
          "123825.234000",
          "123825.234000",
          "123825.234000",
          "123825.234000",
          "123825.234000",
          "123825.250000",
          "123825.250000",
          "123825.250000",
          "123825.250000",
          "123825.250000",
          "123905.203000",
          "123905.218000",
          "123905.218000",
          "123905.218000",
          "123905.218000",
          "123905.218000",
          "123905.218000",
          "123905.218000",
          "123905.234000",
          "123905.234000",
          "123905.234000",
          "123905.234000",
          "123905.234000",
          "123905.234000",
          "123905.234000",
          "123905.250000",
          "123905.250000",
          "123905.250000",
          "123905.250000",
          "123905.250000",
          "123945.203000",
          "123945.218000",
          "123945.218000",
          "123945.218000",
          "123945.218000",
          "123945.218000",
          "123945.218000",
          "123945.218000",
          "123945.234000",
          "123945.234000",
          "123945.234000",
          "123945.234000",
          "123945.234000",
          "123945.250000",
          "123945.250000",
          "123945.250000",
          "123945.250000",
          "123945.250000",
          "123945.250000",
          "123945.250000",
          "124025.203000",
          "124025.218000",
          "124025.218000",
          "124025.218000",
          "124025.218000",
          "124025.218000",
          "124025.218000",
          "124025.218000",
          "124025.234000",
          "124025.234000",
          "124025.234000",
          "124025.234000",
          "124025.234000",
          "124025.234000",
          "124025.234000",
          "124025.250000",
          "124025.250000",
          "124025.250000",
          "124025.250000",
          "124025.250000",
          "124105.203000",
          "124105.218000",
          "124105.218000",
          "124105.218000",
          "124105.218000",
          "124105.218000",
          "124105.218000",
          "124105.218000",
          "124105.234000",
          "124105.234000",
          "124105.234000",
          "124105.234000",
          "124105.234000",
          "124105.234000",
          "124105.234000",
          "124105.234000",
          "124105.250000",
          "124105.250000",
          "124105.250000",
          "124105.250000",
          "124145.203000",
          "124145.218000",
          "124145.218000",
          "124145.218000",
          "124145.218000",
          "124145.218000",
          "124145.218000",
          "124145.218000",
          "124145.234000",
          "124145.234000",
          "124145.234000",
          "124145.234000",
          "124145.234000",
          "124145.234000",
          "124145.234000",
          "124145.250000",
          "124145.250000",
          "124145.250000",
          "124145.250000",
          "124145.250000",
          "124225.203000",
          "124225.218000",
          "124225.218000",
          "124225.218000",
          "124225.218000",
          "124225.218000",
          "124225.218000",
          "124225.218000",
          "124225.234000",
          "124225.234000",
          "124225.234000",
          "124225.234000",
          "124225.234000",
          "124225.234000",
          "124225.234000",
          "124225.234000",
          "124225.250000",
          "124225.250000",
          "124225.250000",
          "124225.250000",
          "124305.203000",
          "124305.218000",
          "124305.218000",
          "124305.218000",
          "124305.218000",
          "124305.218000",
          "124305.218000",
          "124305.234000",
          "124305.234000",
          "124305.234000",
          "124305.234000",
          "124305.234000",
          "124305.234000",
          "124305.250000",
          "124305.250000",
          "124305.250000",
          "124305.250000",
          "124305.250000",
          "124305.250000",
          "124305.250000",
          "124345.203000",
          "124345.218000",
          "124345.218000",
          "124345.218000",
          "124345.218000",
          "124345.218000",
          "124345.218000",
          "124345.218000",
          "124345.234000",
          "124345.234000",
          "124345.234000",
          "124345.234000",
          "124345.234000",
          "124345.234000",
          "124345.234000",
          "124345.250000",
          "124345.250000",
          "124345.250000",
          "124345.250000",
          "124345.250000",
          "124405.203000",
          "124405.218000",
          "124405.218000",
          "124405.218000",
          "124405.218000",
          "124405.218000",
          "124405.218000",
          "124405.218000",
          "124405.234000",
          "124405.234000",
          "124445.203000",
          "124445.218000",
          "124445.218000",
          "124445.218000",
          "124445.218000",
          "124445.218000",
          "124445.218000",
          "124445.218000",
          "124445.234000",
          "124445.234000",
          "124445.234000",
          "124445.234000",
          "124445.234000",
          "124445.234000",
          "124445.234000",
          "124445.250000",
          "124445.250000",
          "124445.250000",
          "124445.250000",
          "124445.250000",
          "124454.343000",
          "124454.343000",
          "124454.359000",
          "124454.359000",
          "124454.359000"
        ],
        "InstanceCreationTime": [
          "123745.218000",
          "123745.218000",
          "123745.218000",
          "123745.218000",
          "123745.218000",
          "123745.218000",
          "123745.234000",
          "123745.234000",
          "123745.234000",
          "123745.234000",
          "123745.234000",
          "123745.234000",
          "123745.234000",
          "123745.234000",
          "123745.250000",
          "123745.250000",
          "123745.250000",
          "123745.250000",
          "123745.250000",
          "123745.250000",
          "123745.250000",
          "123745.265000",
          "123745.265000",
          "123745.265000",
          "123745.265000",
          "123825.203000",
          "123825.218000",
          "123825.218000",
          "123825.218000",
          "123825.218000",
          "123825.218000",
          "123825.218000",
          "123825.218000",
          "123825.234000",
          "123825.234000",
          "123825.234000",
          "123825.234000",
          "123825.234000",
          "123825.234000",
          "123825.234000",
          "123825.250000",
          "123825.250000",
          "123825.250000",
          "123825.250000",
          "123825.250000",
          "123905.203000",
          "123905.218000",
          "123905.218000",
          "123905.218000",
          "123905.218000",
          "123905.218000",
          "123905.218000",
          "123905.218000",
          "123905.234000",
          "123905.234000",
          "123905.234000",
          "123905.234000",
          "123905.234000",
          "123905.234000",
          "123905.234000",
          "123905.250000",
          "123905.250000",
          "123905.250000",
          "123905.250000",
          "123905.250000",
          "123945.203000",
          "123945.218000",
          "123945.218000",
          "123945.218000",
          "123945.218000",
          "123945.218000",
          "123945.218000",
          "123945.218000",
          "123945.234000",
          "123945.234000",
          "123945.234000",
          "123945.234000",
          "123945.234000",
          "123945.250000",
          "123945.250000",
          "123945.250000",
          "123945.250000",
          "123945.250000",
          "123945.250000",
          "123945.250000",
          "124025.203000",
          "124025.218000",
          "124025.218000",
          "124025.218000",
          "124025.218000",
          "124025.218000",
          "124025.218000",
          "124025.218000",
          "124025.234000",
          "124025.234000",
          "124025.234000",
          "124025.234000",
          "124025.234000",
          "124025.234000",
          "124025.234000",
          "124025.250000",
          "124025.250000",
          "124025.250000",
          "124025.250000",
          "124025.250000",
          "124105.203000",
          "124105.218000",
          "124105.218000",
          "124105.218000",
          "124105.218000",
          "124105.218000",
          "124105.218000",
          "124105.218000",
          "124105.234000",
          "124105.234000",
          "124105.234000",
          "124105.234000",
          "124105.234000",
          "124105.234000",
          "124105.234000",
          "124105.234000",
          "124105.250000",
          "124105.250000",
          "124105.250000",
          "124105.250000",
          "124145.203000",
          "124145.218000",
          "124145.218000",
          "124145.218000",
          "124145.218000",
          "124145.218000",
          "124145.218000",
          "124145.218000",
          "124145.234000",
          "124145.234000",
          "124145.234000",
          "124145.234000",
          "124145.234000",
          "124145.234000",
          "124145.234000",
          "124145.250000",
          "124145.250000",
          "124145.250000",
          "124145.250000",
          "124145.250000",
          "124225.203000",
          "124225.218000",
          "124225.218000",
          "124225.218000",
          "124225.218000",
          "124225.218000",
          "124225.218000",
          "124225.218000",
          "124225.234000",
          "124225.234000",
          "124225.234000",
          "124225.234000",
          "124225.234000",
          "124225.234000",
          "124225.234000",
          "124225.234000",
          "124225.250000",
          "124225.250000",
          "124225.250000",
          "124225.250000",
          "124305.203000",
          "124305.218000",
          "124305.218000",
          "124305.218000",
          "124305.218000",
          "124305.218000",
          "124305.218000",
          "124305.234000",
          "124305.234000",
          "124305.234000",
          "124305.234000",
          "124305.234000",
          "124305.234000",
          "124305.250000",
          "124305.250000",
          "124305.250000",
          "124305.250000",
          "124305.250000",
          "124305.250000",
          "124305.250000",
          "124345.203000",
          "124345.218000",
          "124345.218000",
          "124345.218000",
          "124345.218000",
          "124345.218000",
          "124345.218000",
          "124345.218000",
          "124345.234000",
          "124345.234000",
          "124345.234000",
          "124345.234000",
          "124345.234000",
          "124345.234000",
          "124345.234000",
          "124345.250000",
          "124345.250000",
          "124345.250000",
          "124345.250000",
          "124345.250000",
          "124405.203000",
          "124405.218000",
          "124405.218000",
          "124405.218000",
          "124405.218000",
          "124405.218000",
          "124405.218000",
          "124405.218000",
          "124405.234000",
          "124405.234000",
          "124445.203000",
          "124445.218000",
          "124445.218000",
          "124445.218000",
          "124445.218000",
          "124445.218000",
          "124445.218000",
          "124445.218000",
          "124445.234000",
          "124445.234000",
          "124445.234000",
          "124445.234000",
          "124445.234000",
          "124445.234000",
          "124445.234000",
          "124445.250000",
          "124445.250000",
          "124445.250000",
          "124445.250000",
          "124445.250000",
          "124454.343000",
          "124454.343000",
          "124454.359000",
          "124454.359000",
          "124454.359000"
        ],
        "InstanceNumber": [
          1,
          2,
          3,
          4,
          5,
          6,
          7,
          8,
          9,
          10,
          11,
          12,
          13,
          14,
          15,
          16,
          17,
          18,
          19,
          20,
          21,
          22,
          23,
          24,
          25,
          26,
          27,
          28,
          29,
          30,
          31,
          32,
          33,
          34,
          35,
          36,
          37,
          38,
          39,
          40,
          41,
          42,
          43,
          44,
          45,
          46,
