{
  "aor": 0.0023824031007751933,
  "aqi": 0.010158896705426357,
  "bids_meta": {
    "AcquisitionMatrixPE": 68,
    "AcquisitionNumber": 1,
    "AcquisitionTime": "16:51:59.855000",
    "BandwidthPerPixelPhaseEncode": 31.289,
    "BaseResolution": 68,
    "CogAtlasID": "TODO",
    "CoilString": "C:HEA;HEP",
    "ConversionSoftware": "dcm2niix",
    "ConversionSoftwareVersion": "v1.0.20190902",
    "DerivedVendorReportedEchoSpacing": 0.000470002,
    "DeviceSerialNumber": "35450",
    "DwellTime": 3e-06,
    "EchoTime": 0.023,
    "EffectiveEchoSpacing": 0.000470002,
    "FlipAngle": 76,
    "ImageOrientationPatientDICOM": [
      0.999816,
      0.00237287,
      0.0190502,
      -4.19453e-08,
      0.992332,
      -0.123601
    ],
    "ImageType": [
      "ORIGINAL",
      "PRIMARY",
      "M",
      "ND",
      "MOSAIC"
    ],
    "ImagingFrequency": 123.219,
    "InPlanePhaseEncodingDirectionDICOM": "COL",
    "InstitutionAddress": "Univeristy_Ave._197_Newark_North_East_US_07102-1814",
    "InstitutionName": "RUBIC",
    "InstitutionalDepartmentName": "Department",
    "MRAcquisitionType": "2D",
    "MagneticFieldStrength": 3,
    "Manufacturer": "Siemens",
    "ManufacturersModelName": "TrioTim",
    "Modality": "MR",
    "PartialFourier": 1,
    "PatientPosition": "HFS",
    "PercentPhaseFOV": 100,
    "PhaseEncodingDirection": "j-",
    "PhaseEncodingSteps": 68,
    "PhaseResolution": 1,
    "PixelBandwidth": 2451,
    "ProcedureStepDescription": "Krekelberg_David",
    "ProtocolName": "ep2d_bold_CardGameEPI_3",
    "PulseSequenceDetails": "%SiemensSeq%_ep2d_bold",
    "ReceiveCoilName": "HeadMatrix",
    "ReconMatrixPE": 68,
    "RepetitionTime": 2,
    "SAR": 0.166162,
    "ScanOptions": "FS",
    "ScanningSequence": "EP",
    "SequenceName": "_epfid2d1_68",
    "SequenceVariant": "SK",
    "SeriesDescription": "ep2d_bold_CardGameEPI_3",
    "SeriesNumber": 12,
    "ShimSetting": [
      1977,
      -686,
      -7539,
      795,
      203,
      -32,
      -80,
      -88
    ],
    "SliceThickness": 2.5,
    "SliceTiming": [
      1.9525,
      1.8975,
      1.84,
      1.785,
      1.73,
      1.6725,
      1.6175,
      1.5625,
      1.505,
      1.45,
      1.395,
      1.34,
      1.2825,
      1.2275,
      1.1725,
      1.115,
      1.06,
      1.005,
      0.9475,
      0.8925,
      0.8375,
      0.78,
      0.725,
      0.67,
      0.615,
      0.5575,
      0.5025,
      0.4475,
      0.39,
      0.335,
      0.28,
      0.2225,
      0.1675,
      0.1125,
      0.0575,
      0
    ],
    "SoftwareVersions": "syngo_MR_B19",
    "SpacingBetweenSlices": 3,
    "StationName": "MRC35450",
    "TaskName": "cardgame",
    "TotalReadoutTime": 0.0314901,
    "TxRefAmp": 342.309,
    "dataset": "<unset>",
    "dcmmeta_affine": [
      [
        -2.9994471073150635,
        -1.258358679478988e-07,
        0.05759233981370926,
        98.261474609375
      ],
      [
        -0.007118623703718185,
        2.9769957065582275,
        -0.37073609232902527,
        -73.89026641845703
      ],
      [
        0.0571507066488266,
        0.37080442905426025,
        2.976447105407715,
        -40.505184173583984
      ],
      [
        0.0,
        0.0,
        0.0,
        1.0
      ]
    ],
    "dcmmeta_reorient_transform": [
      [
        0.0,
        -1.0,
        0.0,
        67.0
      ],
      [
        1.0,
        0.0,
        0.0,
        0.0
      ],
      [
        0.0,
        0.0,
        1.0,
        0.0
      ],
      [
        0.0,
        0.0,
        0.0,
        1.0
      ]
    ],
    "dcmmeta_shape": [
      68,
      68,
      36,
      258
    ],
    "dcmmeta_slice_dim": 2,
    "dcmmeta_version": 0.6,
    "global": {
      "const": {
        "AcquisitionMatrix": [
          68,
          0,
          0,
          68
        ],
        "AngioFlag": "N",
        "BitsAllocated": 16,
        "BitsStored": 12,
        "Columns": 408,
        "EchoNumbers": 1,
        "EchoTime": 23.0,
        "EchoTrainLength": 1,
        "FlipAngle": 76.0,
        "HighBit": 11,
        "ImageOrientationPatient": [
          0.99981571201944,
          0.00237287453708,
          0.01905023531357,
          -4.194529e-08,
          0.99233193767192,
          -0.1236014784551
        ],
        "ImagePositionPatient": [
          -608.1674599466,
          -632.86790944874,
          37.659848870259
        ],
        "ImageType": [
          "ORIGINAL",
          "PRIMARY",
          "M",
          "ND",
          "MOSAIC"
        ],
        "ImagedNucleus": "1H",
        "ImagingFrequency": 123.218561,
        "InPlanePhaseEncodingDirection": "COL",
        "MRAcquisitionType": "2D",
        "MagneticFieldStrength": 3.0,
        "Manufacturer": "SIEMENS",
        "ManufacturerModelName": "TrioTim",
        "Modality": "MR",
        "NumberOfAverages": 1.0,
        "NumberOfPhaseEncodingSteps": 68,
        "PercentPhaseFieldOfView": 100.0,
        "PercentSampling": 100.0,
        "PerformedProcedureStepStartTime": "153524.312000",
        "PhotometricInterpretation": "MONOCHROME2",
        "PixelBandwidth": 2451.0,
        "PixelRepresentation": 0,
        "PixelSpacing": [
          3.0,
          3.0
        ],
        "ProtocolName": "ep2d_bold_CardGameEPI_3",
        "RepetitionTime": 2000.0,
        "Rows": 408,
        "SAR": 0.16616233630214,
        "SamplesPerPixel": 1,
        "ScanOptions": "FS",
        "ScanningSequence": "EP",
        "SequenceName": "*epfid2d1_68",
        "SequenceVariant": "SK",
        "SeriesDescription": "ep2d_bold_CardGameEPI_3",
        "SeriesNumber": 12,
        "SeriesTime": "165203.390000",
        "SliceLocation": -29.169546349373,
        "SliceThickness": 2.5,
        "SmallestImagePixelValue": 0,
        "SoftwareVersions": "syngo MR B19",
        "SpacingBetweenSlices": 2.9999998894837,
        "SpecificCharacterSet": "ISO_IR 100",
        "StudyID": "1",
        "StudyTime": "153524.250000",
        "TransmitCoilName": "Body",
        "VariableFlipAngleFlag": "N",
        "WindowCenterWidthExplanation": "Algo1",
        "dBdt": 0.0
      },
      "slices": {}
    },
    "modality": "bold",
    "run_id": 3,
    "subject_id": "219",
    "task_id": "cardgame",
    "time": {
      "samples": {
        "AcquisitionNumber": [
          1,
          2,
          3,
          4,
          5,
          6,
          7,
          8,
          9,
          10,
          11,
          12,
          13,
          14,
          15,
          16,
          17,
          18,
          19,
          20,
          21,
          22,
          23,
          24,
          25,
          26,
          27,
          28,
          29,
          30,
          31,
          32,
          33,
          34,
          35,
          36,
          37,
          38,
          39,
          40,
          41,
          42,
          43,
          44,
          45,
          46,
          47,
          48,
          49,
          50,
          51,
          52,
          53,
          54,
          55,
          56,
          57,
          58,
          59,
          60,
          61,
          62,
          63,
          64,
          65,
          66,
          67,
          68,
          69,
          70,
          71,
          72,
          73,
          74,
          75,
          76,
          77,
          78,
          79,
          80,
          81,
          82,
          83,
          84,
          85,
          86,
          87,
          88,
          89,
          90,
          91,
          92,
          93,
          94,
          95,
          96,
          97,
          98,
          99,
          100,
          101,
          102,
          103,
          104,
          105,
          106,
          107,
          108,
          109,
          110,
          111,
          112,
          113,
          114,
          115,
          116,
          117,
          118,
          119,
          120,
          121,
          122,
          123,
          124,
          125,
          126,
          127,
          128,
          129,
          130,
          131,
          132,
          133,
          134,
          135,
          136,
          137,
          138,
          139,
          140,
          141,
          142,
          143,
          144,
          145,
          146,
          147,
          148,
          149,
          150,
          151,
          152,
          153,
          154,
          155,
          156,
          157,
          158,
          159,
          160,
          161,
          162,
          163,
          164,
          165,
          166,
          167,
          168,
          169,
          170,
          171,
          172,
          173,
          174,
          175,
          176,
          177,
          178,
          179,
          180,
          181,
          182,
          183,
          184,
          185,
          186,
          187,
          188,
          189,
          190,
          191,
          192,
          193,
          194,
          195,
          196,
          197,
          198,
          199,
          200,
          201,
          202,
          203,
          204,
          205,
          206,
          207,
          208,
          209,
          210,
          211,
          212,
          213,
          214,
          215,
          216,
          217,
          218,
          219,
          220,
          221,
          222,
          223,
          224,
          225,
          226,
          227,
          228,
          229,
          230,
          231,
          232,
          233,
          234,
          235,
          236,
          237,
          238,
          239,
          240,
          241,
          242,
          243,
          244,
          245,
          246,
          247,
          248,
          249,
          250,
          251,
          252,
          253,
          254,
          255,
          256,
          257,
          258
        ],
        "AcquisitionTime": [
          "165159.855000",
          "165201.862500",
          "165203.870000",
          "165205.880000",
          "165207.887500",
          "165209.895000",
          "165211.902500",
          "165213.910000",
          "165215.920000",
          "165217.927500",
          "165219.935000",
          "165221.942500",
          "165223.950000",
          "165225.960000",
          "165227.967500",
          "165229.975000",
          "165231.982500",
          "165233.992500",
          "165236.000000",
          "165238.007500",
          "165240.015000",
          "165242.022500",
          "165244.032500",
          "165246.040000",
          "165248.047500",
          "165250.055000",
          "165252.062500",
          "165254.072500",
          "165256.080000",
          "165258.087500",
          "165300.095000",
          "165302.102500",
          "165304.112500",
          "165306.120000",
          "165308.127500",
          "165310.135000",
          "165312.145000",
          "165314.152500",
          "165316.160000",
          "165318.167500",
          "165320.175000",
          "165322.185000",
          "165324.192500",
          "165326.200000",
          "165328.207500",
          "165330.215000",
          "165332.225000",
          "165334.232500",
          "165336.240000",
          "165338.247500",
          "165340.257500",
          "165342.265000",
          "165344.272500",
          "165346.280000",
          "165348.287500",
          "165350.297500",
          "165352.305000",
          "165354.312500",
          "165356.320000",
          "165358.327500",
          "165400.337500",
          "165402.345000",
          "165404.352500",
          "165406.360000",
          "165408.370000",
          "165410.377500",
          "165412.385000",
          "165414.392500",
          "165416.400000",
          "165418.410000",
          "165420.417500",
          "165422.425000",
          "165424.432500",
          "165426.440000",
          "165428.450000",
          "165430.457500",
          "165432.465000",
          "165434.472500",
          "165436.480000",
          "165438.490000",
          "165440.497500",
          "165442.505000",
          "165444.512500",
          "165446.522500",
          "165448.530000",
          "165450.537500",
          "165452.545000",
          "165454.552500",
          "165456.562500",
          "165458.570000",
          "165500.577500",
          "165502.585000",
          "165504.592500",
          "165506.602500",
          "165508.610000",
          "165510.617500",
          "165512.625000",
          "165514.635000",
          "165516.642500",
          "165518.650000",
          "165520.657500",
          "165522.665000",
          "165524.675000",
          "165526.682500",
          "165528.690000",
          "165530.697500",
          "165532.705000",
          "165534.715000",
          "165536.722500",
          "165538.730000",
          "165540.737500",
          "165542.747500",
          "165544.755000",
          "165546.762500",
          "165548.770000",
          "165550.777500",
          "165552.787500",
          "165554.795000",
          "165556.802500",
          "165558.810000",
          "165600.817500",
          "165602.827500",
          "165604.835000",
          "165606.842500",
          "165608.850000",
          "165610.860000",
          "165612.867500",
          "165614.875000",
          "165616.882500",
          "165618.890000",
          "165620.900000",
          "165622.907500",
          "165624.915000",
          "165626.922500",
          "165628.930000",
          "165630.940000",
          "165632.947500",
          "165634.955000",
          "165636.962500",
          "165638.970000",
          "165640.980000",
          "165642.987500",
          "165644.995000",
          "165647.002500",
          "165649.012500",
          "165651.020000",
          "165653.027500",
          "165655.035000",
          "165657.042500",
          "165659.052500",
          "165701.060000",
          "165703.067500",
          "165705.075000",
          "165707.082500",
          "165709.092500",
          "165711.100000",
          "165713.107500",
          "165715.115000",
          "165717.125000",
          "165719.132500",
          "165721.140000",
          "165723.147500",
          "165725.155000",
          "165727.165000",
          "165729.172500",
          "165731.180000",
          "165733.187500",
          "165735.195000",
          "165737.205000",
          "165739.212500",
          "165741.220000",
          "165743.227500",
          "165745.237500",
          "165747.245000",
          "165749.252500",
          "165751.260000",
          "165753.267500",
          "165755.277500",
          "165757.285000",
          "165759.292500",
          "165801.300000",
          "165803.307500",
          "165805.317500",
          "165807.325000",
          "165809.332500",
          "165811.340000",
          "165813.347500",
          "165815.357500",
          "165817.365000",
          "165819.372500",
          "165821.380000",
          "165823.390000",
          "165825.397500",
          "165827.405000",
          "165829.412500",
          "165831.420000",
          "165833.430000",
          "165835.437500",
          "165837.445000",
          "165839.452500",
          "165841.460000",
          "165843.470000",
          "165845.477500",
          "165847.485000",
          "165849.492500",
          "165851.502500",
          "165853.510000",
          "165855.517500",
          "165857.525000",
          "165859.532500",
          "165901.542500",
          "165903.550000",
          "165905.557500",
          "165907.565000",
          "165909.572500",
          "165911.582500",
          "165913.590000",
          "165915.597500",
          "165917.605000",
          "165919.615000",
          "165921.622500",
          "165923.630000",
          "165925.637500",
          "165927.645000",
          "165929.655000",
          "165931.662500",
          "165933.670000",
          "165935.677500",
          "165937.685000",
          "165939.695000",
          "165941.702500",
          "165943.710000",
          "165945.717500",
          "165947.725000",
          "165949.735000",
          "165951.742500",
          "165953.750000",
          "165955.757500",
          "165957.767500",
          "165959.775000",
          "170001.782500",
          "170003.790000",
          "170005.797500",
          "170007.807500",
          "170009.815000",
          "170011.822500",
          "170013.830000",
          "170015.837500",
          "170017.847500",
          "170019.855000",
          "170021.862500",
          "170023.870000",
          "170025.880000",
          "170027.887500",
          "170029.895000",
          "170031.902500",
          "170033.910000",
          "170035.920000"
        ],
        "ContentTime": [
          "165203.406000",
          "165203.406000",
          "165243.390000",
          "165243.390000",
          "165243.406000",
          "165243.406000",
          "165243.406000",
          "165243.406000",
          "165243.406000",
          "165243.406000",
          "165243.406000",
          "165243.406000",
          "165243.421000",
          "165243.421000",
          "165243.421000",
          "165243.421000",
          "165243.421000",
          "165243.421000",
          "165243.421000",
          "165243.421000",
          "165243.437000",
          "165243.437000",
          "165323.390000",
          "165323.390000",
          "165323.390000",
          "165323.406000",
          "165323.406000",
          "165323.406000",
          "165323.406000",
          "165323.406000",
          "165323.406000",
          "165323.406000",
          "165323.421000",
          "165323.421000",
          "165323.421000",
          "165323.421000",
          "165323.421000",
          "165323.421000",
          "165323.421000",
          "165323.437000",
          "165323.437000",
          "165323.437000",
          "165403.390000",
          "165403.390000",
          "165403.390000",
          "165403.406000",
          "165403.406000",
          "165403.406000",
          "165403.406000",
          "165403.406000",
          "165403.406000",
          "165403.406000",
          "165403.421000",
          "165403.421000",
          "165403.421000",
          "165403.421000",
          "165403.421000",
          "165403.421000",
          "165403.421000",
          "165403.421000",
          "165403.437000",
          "165403.437000",
          "165443.390000",
          "165443.390000",
          "165443.390000",
          "165443.406000",
          "165443.406000",
          "165443.406000",
          "165443.406000",
          "165443.406000",
          "165443.406000",
          "165443.406000",
          "165443.421000",
          "165443.421000",
          "165443.421000",
          "165443.421000",
          "165443.421000",
          "165443.421000",
          "165443.421000",
          "165443.421000",
          "165443.437000",
          "165443.437000",
          "165523.390000",
          "165523.390000",
          "165523.390000",
          "165523.406000",
          "165523.406000",
          "165523.406000",
          "165523.406000",
          "165523.406000",
          "165523.406000",
          "165523.406000",
          "165523.421000",
          "165523.421000",
          "165523.421000",
          "165523.421000",
          "165523.421000",
          "165523.421000",
          "165523.421000",
          "165523.437000",
          "165523.437000",
          "165523.437000",
          "165603.390000",
          "165603.390000",
          "165603.390000",
          "165603.406000",
          "165603.406000",
          "165603.406000",
          "165603.406000",
          "165603.406000",
          "165603.406000",
          "165603.406000",
          "165603.421000",
          "165603.421000",
          "165603.421000",
          "165603.421000",
          "165603.421000",
          "165603.421000",
          "165603.421000",
          "165603.421000",
          "165603.437000",
          "165603.437000",
          "165643.390000",
          "165643.390000",
          "165643.406000",
          "165643.406000",
          "165643.406000",
          "165643.406000",
          "165643.406000",
          "165643.406000",
          "165643.406000",
          "165643.406000",
          "165643.421000",
          "165643.421000",
          "165643.421000",
          "165643.421000",
          "165643.421000",
          "165643.421000",
          "165643.421000",
          "165643.437000",
          "165643.437000",
          "165643.437000",
          "165723.390000",
          "165723.390000",
          "165723.390000",
          "165723.406000",
          "165723.406000",
          "165723.406000",
          "165723.406000",
          "165723.406000",
          "165723.406000",
          "165723.406000",
          "165723.421000",
          "165723.421000",
          "165723.421000",
          "165723.421000",
          "165723.421000",
          "165723.421000",
          "165723.421000",
          "165723.421000",
          "165723.437000",
          "165723.437000",
          "165803.390000",
          "165803.390000",
          "165803.390000",
          "165803.406000",
          "165803.406000",
          "165803.406000",
          "165803.421000",
          "165803.421000",
          "165803.421000",
          "165803.421000",
          "165803.421000",
          "165803.421000",
          "165803.421000",
          "165803.437000",
          "165803.437000",
          "165803.437000",
          "165803.437000",
          "165803.437000",
          "165803.437000",
          "165803.437000",
          "165843.390000",
          "165843.390000",
          "165843.406000",
          "165843.406000",
          "165843.406000",
          "165843.406000",
          "165843.406000",
          "165843.406000",
          "165843.406000",
          "165843.421000",
          "165843.421000",
          "165843.421000",
          "165843.421000",
          "165843.421000",
          "165843.421000",
          "165843.421000",
          "165843.421000",
          "165843.437000",
          "165843.437000",
          "165843.437000",
          "165923.390000",
          "165923.390000",
          "165923.390000",
          "165923.406000",
          "165923.406000",
          "165923.406000",
          "165923.406000",
          "165923.406000",
          "165923.406000",
          "165923.406000",
          "165923.421000",
          "165923.421000",
          "165923.421000",
          "165923.421000",
          "165923.421000",
          "165923.421000",
          "165923.421000",
          "165923.421000",
          "165923.437000",
          "165923.437000",
          "170003.390000",
          "170003.390000",
          "170003.406000",
          "170003.406000",
          "170003.406000",
          "170003.406000",
          "170003.406000",
          "170003.406000",
          "170003.406000",
          "170003.406000",
          "170003.421000",
          "170003.421000",
          "170003.421000",
          "170003.421000",
          "170003.421000",
          "170003.421000",
          "170003.421000",
          "170003.437000",
          "170003.437000",
          "170003.437000",
          "170034.703000",
          "170034.718000",
          "170034.718000",
          "170034.718000",
          "170034.718000",
          "170034.718000",
          "170034.718000",
          "170034.718000",
          "170034.734000",
          "170034.734000",
          "170034.734000",
          "170034.734000",
          "170034.734000",
          "170034.734000",
          "170034.734000",
          "170034.750000"
        ],
        "InstanceCreationTime": [
          "165203.406000",
          "165203.406000",
          "165243.390000",
          "165243.390000",
          "165243.406000",
          "165243.406000",
          "165243.406000",
          "165243.406000",
          "165243.406000",
          "165243.406000",
          "165243.406000",
          "165243.406000",
          "165243.421000",
          "165243.421000",
          "165243.421000",
          "165243.421000",
          "165243.421000",
          "165243.421000",
          "165243.421000",
          "165243.421000",
          "165243.437000",
          "165243.437000",
          "165323.390000",
          "165323.390000",
          "165323.390000",
          "165323.406000",
          "165323.406000",
          "165323.406000",
          "165323.406000",
          "165323.406000",
          "165323.406000",
          "165323.406000",
          "165323.421000",
          "165323.421000",
          "165323.421000",
          "165323.421000",
          "165323.421000",
          "165323.421000",
          "165323.421000",
          "165323.437000",
          "165323.437000",
          "165323.437000",
          "165403.390000",
          "165403.390000",
          "165403.390000",
          "165403.406000",
          "165403.406000",
          "165403.406000",
          "165403.406000",
          "165403.406000",
          "165403.406000",
          "165403.406000",
          "165403.421000",
          "165403.421000",
          "165403.421000",
          "165403.421000",
          "165403.421000",
          "165403.421000",
          "165403.421000",
          "165403.421000",
          "165403.437000",
          "165403.437000",
          "165443.390000",
          "165443.390000",
          "165443.390000",
          "165443.406000",
          "165443.406000",
          "165443.406000",
          "165443.406000",
          "165443.406000",
          "165443.406000",
          "165443.406000",
          "165443.421000",
          "165443.421000",
          "165443.421000",
          "165443.421000",
          "165443.421000",
          "165443.421000",
          "165443.421000",
          "165443.421000",
          "165443.437000",
          "165443.437000",
          "165523.390000",
          "165523.390000",
          "165523.390000",
          "165523.406000",
          "165523.406000",
          "165523.406000",
          "165523.406000",
          "165523.406000",
          "165523.406000",
          "165523.406000",
          "165523.421000",
          "165523.421000",
          "165523.421000",
          "165523.421000",
          "165523.421000",
          "165523.421000",
          "165523.421000",
          "165523.437000",
          "165523.437000",
          "165523.437000",
          "165603.390000",
          "165603.390000",
          "165603.390000",
          "165603.406000",
          "165603.406000",
          "165603.406000",
          "165603.406000",
          "165603.406000",
          "165603.406000",
          "165603.406000",
          "165603.421000",
          "165603.421000",
          "165603.421000",
          "165603.421000",
          "165603.421000",
          "165603.421000",
          "165603.421000",
          "165603.421000",
          "165603.437000",
          "165603.437000",
          "165643.390000",
          "165643.390000",
          "165643.406000",
          "165643.406000",
          "165643.406000",
          "165643.406000",
          "165643.406000",
          "165643.406000",
          "165643.406000",
          "165643.406000",
          "165643.421000",
          "165643.421000",
          "165643.421000",
          "165643.421000",
          "165643.421000",
          "165643.421000",
          "165643.421000",
          "165643.437000",
          "165643.437000",
          "165643.437000",
          "165723.390000",
          "165723.390000",
          "165723.390000",
          "165723.406000",
          "165723.406000",
          "165723.406000",
          "165723.406000",
          "165723.406000",
          "165723.406000",
          "165723.406000",
          "165723.421000",
          "165723.421000",
          "165723.421000",
          "165723.421000",
          "165723.421000",
          "165723.421000",
          "165723.421000",
          "165723.421000",
          "165723.437000",
          "165723.437000",
          "165803.390000",
          "165803.390000",
          "165803.390000",
          "165803.406000",
          "165803.406000",
          "165803.406000",
          "165803.421000",
          "165803.421000",
          "165803.421000",
          "165803.421000",
          "165803.421000",
          "165803.421000",
          "165803.421000",
          "165803.437000",
          "165803.437000",
          "165803.437000",
          "165803.437000",
          "165803.437000",
          "165803.437000",
          "165803.437000",
          "165843.390000",
          "165843.390000",
          "165843.406000",
          "165843.406000",
          "165843.406000",
          "165843.406000",
          "165843.406000",
          "165843.406000",
          "165843.406000",
          "165843.421000",
          "165843.421000",
          "165843.421000",
          "165843.421000",
          "165843.421000",
          "165843.421000",
          "165843.421000",
          "165843.421000",
          "165843.437000",
          "165843.437000",
          "165843.437000",
          "165923.390000",
          "165923.390000",
          "165923.390000",
          "165923.406000",
          "165923.406000",
          "165923.406000",
          "165923.406000",
          "165923.406000",
          "165923.406000",
          "165923.406000",
          "165923.421000",
          "165923.421000",
          "165923.421000",
          "165923.421000",
          "165923.421000",
          "165923.421000",
