{
  "aor": 0.0011693277310924372,
  "aqi": 0.008271818739495798,
  "bids_meta": {
    "AcquisitionMatrixPE": 68,
    "AcquisitionNumber": 1,
    "AcquisitionTime": "16:24:30.722500",
    "BandwidthPerPixelPhaseEncode": 31.289,
    "BaseResolution": 68,
    "CogAtlasID": "TODO",
    "CoilString": "C:HEA;HEP",
    "ConversionSoftware": "dcm2niix",
    "ConversionSoftwareVersion": "v1.0.20190902",
    "DerivedVendorReportedEchoSpacing": 0.000470002,
    "DeviceSerialNumber": "35450",
    "DwellTime": 3e-06,
    "EchoTime": 0.023,
    "EffectiveEchoSpacing": 0.000470002,
    "FlipAngle": 76,
    "ImageOrientationPatientDICOM": [
      0.999816,
      0.00237287,
      0.0190502,
      -4.19453e-08,
      0.992332,
      -0.123601
    ],
    "ImageType": [
      "ORIGINAL",
      "PRIMARY",
      "M",
      "ND",
      "MOSAIC"
    ],
    "ImagingFrequency": 123.219,
    "InPlanePhaseEncodingDirectionDICOM": "COL",
    "InstitutionAddress": "Univeristy_Ave._197_Newark_North_East_US_07102-1814",
    "InstitutionName": "RUBIC",
    "InstitutionalDepartmentName": "Department",
    "MRAcquisitionType": "2D",
    "MagneticFieldStrength": 3,
    "Manufacturer": "Siemens",
    "ManufacturersModelName": "TrioTim",
    "Modality": "MR",
    "PartialFourier": 1,
    "PatientPosition": "HFS",
    "PercentPhaseFOV": 100,
    "PhaseEncodingDirection": "j-",
    "PhaseEncodingSteps": 68,
    "PhaseResolution": 1,
    "PixelBandwidth": 2451,
    "ProcedureStepDescription": "Krekelberg_David",
    "ProtocolName": "ep2d_bold_RestEPI_2",
    "PulseSequenceDetails": "%SiemensSeq%_ep2d_bold",
    "ReceiveCoilName": "HeadMatrix",
    "ReconMatrixPE": 68,
    "RepetitionTime": 2,
    "SAR": 0.166127,
    "ScanOptions": "FS",
    "ScanningSequence": "EP",
    "SequenceName": "_epfid2d1_68",
    "SequenceVariant": "SK",
    "SeriesDescription": "ep2d_bold_RestEPI_2",
    "SeriesNumber": 9,
    "ShimSetting": [
      1977,
      -686,
      -7539,
      795,
      203,
      -32,
      -80,
      -88
    ],
    "SliceThickness": 2.5,
    "SliceTiming": [
      1.9525,
      1.8975,
      1.8425,
      1.785,
      1.73,
      1.675,
      1.6175,
      1.5625,
      1.5075,
      1.45,
      1.395,
      1.34,
      1.2825,
      1.2275,
      1.1725,
      1.1175,
      1.06,
      1.005,
      0.95,
      0.8925,
      0.8375,
      0.7825,
      0.725,
      0.67,
      0.615,
      0.56,
      0.5025,
      0.4475,
      0.3925,
      0.335,
      0.28,
      0.225,
      0.1675,
      0.1125,
      0.0575,
      0
    ],
    "SoftwareVersions": "syngo_MR_B19",
    "SpacingBetweenSlices": 3,
    "StationName": "MRC35450",
    "TaskName": "rest",
    "TotalReadoutTime": 0.0314901,
    "TxRefAmp": 342.309,
    "dataset": "<unset>",
    "dcmmeta_affine": [
      [
        -2.9994471073150635,
        -1.258358679478988e-07,
        0.05759233981370926,
        98.261474609375
      ],
      [
        -0.007118623703718185,
        2.9769957065582275,
        -0.37073609232902527,
        -73.89026641845703
      ],
      [
        0.0571507066488266,
        0.37080442905426025,
        2.976447105407715,
        -40.505184173583984
      ],
      [
        0.0,
        0.0,
        0.0,
        1.0
      ]
    ],
    "dcmmeta_reorient_transform": [
      [
        0.0,
        -1.0,
        0.0,
        67.0
      ],
      [
        1.0,
        0.0,
        0.0,
        0.0
      ],
      [
        0.0,
        0.0,
        1.0,
        0.0
      ],
      [
        0.0,
        0.0,
        0.0,
        1.0
      ]
    ],
    "dcmmeta_shape": [
      68,
      68,
      36,
      240
    ],
    "dcmmeta_slice_dim": 2,
    "dcmmeta_version": 0.6,
    "global": {
      "const": {
        "AcquisitionMatrix": [
          68,
          0,
          0,
          68
        ],
        "AngioFlag": "N",
        "BitsAllocated": 16,
        "BitsStored": 12,
        "Columns": 408,
        "EchoNumbers": 1,
        "EchoTime": 23.0,
        "EchoTrainLength": 1,
        "FlipAngle": 76.0,
        "HighBit": 11,
        "ImageOrientationPatient": [
          0.99981571201944,
          0.00237287453708,
          0.01905023531357,
          -4.194529e-08,
          0.99233193767192,
          -0.1236014784551
        ],
        "ImagePositionPatient": [
          -608.1674599466,
          -632.86790944874,
          37.659848870259
        ],
        "ImageType": [
          "ORIGINAL",
          "PRIMARY",
          "M",
          "ND",
          "MOSAIC"
        ],
        "ImagedNucleus": "1H",
        "ImagingFrequency": 123.218523,
        "InPlanePhaseEncodingDirection": "COL",
        "MRAcquisitionType": "2D",
        "MagneticFieldStrength": 3.0,
        "Manufacturer": "SIEMENS",
        "ManufacturerModelName": "TrioTim",
        "Modality": "MR",
        "NumberOfAverages": 1.0,
        "NumberOfPhaseEncodingSteps": 68,
        "PercentPhaseFieldOfView": 100.0,
        "PercentSampling": 100.0,
        "PerformedProcedureStepStartTime": "153524.312000",
        "PhotometricInterpretation": "MONOCHROME2",
        "PixelBandwidth": 2451.0,
        "PixelRepresentation": 0,
        "PixelSpacing": [
          3.0,
          3.0
        ],
        "ProtocolName": "ep2d_bold_RestEPI_2",
        "RepetitionTime": 2000.0,
        "Rows": 408,
        "SAR": 0.16612679496426,
        "SamplesPerPixel": 1,
        "ScanOptions": "FS",
        "ScanningSequence": "EP",
        "SequenceName": "*epfid2d1_68",
        "SequenceVariant": "SK",
        "SeriesDescription": "ep2d_bold_RestEPI_2",
        "SeriesNumber": 9,
        "SeriesTime": "162523.390000",
        "SliceLocation": -29.169546349373,
        "SliceThickness": 2.5,
        "SmallestImagePixelValue": 0,
        "SoftwareVersions": "syngo MR B19",
        "SpacingBetweenSlices": 2.9999998894837,
        "SpecificCharacterSet": "ISO_IR 100",
        "StudyID": "1",
        "StudyTime": "153524.250000",
        "TransmitCoilName": "Body",
        "VariableFlipAngleFlag": "N",
        "WindowCenterWidthExplanation": "Algo1",
        "dBdt": 0.0
      },
      "slices": {}
    },
    "modality": "bold",
    "run_id": 2,
    "subject_id": "219",
    "task_id": "rest",
    "time": {
      "samples": {
        "AcquisitionNumber": [
          1,
          2,
          3,
          4,
          5,
          6,
          7,
          8,
          9,
          10,
          11,
          12,
          13,
          14,
          15,
          16,
          17,
          18,
          19,
          20,
          21,
          22,
          23,
          24,
          25,
          26,
          27,
          28,
          29,
          30,
          31,
          32,
          33,
          34,
          35,
          36,
          37,
          38,
          39,
          40,
          41,
          42,
          43,
          44,
          45,
          46,
          47,
          48,
          49,
          50,
          51,
          52,
          53,
          54,
          55,
          56,
          57,
          58,
          59,
          60,
          61,
          62,
          63,
          64,
          65,
          66,
          67,
          68,
          69,
          70,
          71,
          72,
          73,
          74,
          75,
          76,
          77,
          78,
          79,
          80,
          81,
          82,
          83,
          84,
          85,
          86,
          87,
          88,
          89,
          90,
          91,
          92,
          93,
          94,
          95,
          96,
          97,
          98,
          99,
          100,
          101,
          102,
          103,
          104,
          105,
          106,
          107,
          108,
          109,
          110,
          111,
          112,
          113,
          114,
          115,
          116,
          117,
          118,
          119,
          120,
          121,
          122,
          123,
          124,
          125,
          126,
          127,
          128,
          129,
          130,
          131,
          132,
          133,
          134,
          135,
          136,
          137,
          138,
          139,
          140,
          141,
          142,
          143,
          144,
          145,
          146,
          147,
          148,
          149,
          150,
          151,
          152,
          153,
          154,
          155,
          156,
          157,
          158,
          159,
          160,
          161,
          162,
          163,
          164,
          165,
          166,
          167,
          168,
          169,
          170,
          171,
          172,
          173,
          174,
          175,
          176,
          177,
          178,
          179,
          180,
          181,
          182,
          183,
          184,
          185,
          186,
          187,
          188,
          189,
          190,
          191,
          192,
          193,
          194,
          195,
          196,
          197,
          198,
          199,
          200,
          201,
          202,
          203,
          204,
          205,
          206,
          207,
          208,
          209,
          210,
          211,
          212,
          213,
          214,
          215,
          216,
          217,
          218,
          219,
          220,
          221,
          222,
          223,
          224,
          225,
          226,
          227,
          228,
          229,
          230,
          231,
          232,
          233,
          234,
          235,
          236,
          237,
          238,
          239,
          240
        ],
        "AcquisitionTime": [
          "162430.722500",
          "162432.730000",
          "162434.740000",
          "162436.747500",
          "162438.755000",
          "162440.762500",
          "162442.770000",
          "162444.780000",
          "162446.787500",
          "162448.795000",
          "162450.802500",
          "162452.810000",
          "162454.820000",
          "162456.827500",
          "162458.835000",
          "162500.842500",
          "162502.852500",
          "162504.860000",
          "162506.867500",
          "162508.875000",
          "162510.882500",
          "162512.892500",
          "162514.900000",
          "162516.907500",
          "162518.915000",
          "162520.922500",
          "162522.932500",
          "162524.940000",
          "162526.947500",
          "162528.955000",
          "162530.965000",
          "162532.972500",
          "162534.980000",
          "162536.987500",
          "162538.995000",
          "162541.005000",
          "162543.012500",
          "162545.020000",
          "162547.027500",
          "162549.035000",
          "162551.045000",
          "162553.052500",
          "162555.060000",
          "162557.067500",
          "162559.077500",
          "162601.085000",
          "162603.092500",
          "162605.100000",
          "162607.107500",
          "162609.117500",
          "162611.125000",
          "162613.132500",
          "162615.140000",
          "162617.147500",
          "162619.157500",
          "162621.165000",
          "162623.172500",
          "162625.180000",
          "162627.187500",
          "162629.197500",
          "162631.205000",
          "162633.212500",
          "162635.220000",
          "162637.230000",
          "162639.237500",
          "162641.245000",
          "162643.252500",
          "162645.260000",
          "162647.270000",
          "162649.277500",
          "162651.285000",
          "162653.292500",
          "162655.300000",
          "162657.310000",
          "162659.317500",
          "162701.325000",
          "162703.332500",
          "162705.342500",
          "162707.350000",
          "162709.357500",
          "162711.365000",
          "162713.372500",
          "162715.382500",
          "162717.390000",
          "162719.397500",
          "162721.405000",
          "162723.412500",
          "162725.422500",
          "162727.430000",
          "162729.437500",
          "162731.445000",
          "162733.455000",
          "162735.462500",
          "162737.470000",
          "162739.477500",
          "162741.485000",
          "162743.495000",
          "162745.502500",
          "162747.510000",
          "162749.517500",
          "162751.525000",
          "162753.535000",
          "162755.542500",
          "162757.550000",
          "162759.557500",
          "162801.565000",
          "162803.575000",
          "162805.582500",
          "162807.590000",
          "162809.597500",
          "162811.607500",
          "162813.615000",
          "162815.622500",
          "162817.630000",
          "162819.637500",
          "162821.647500",
          "162823.655000",
          "162825.662500",
          "162827.670000",
          "162829.677500",
          "162831.687500",
          "162833.695000",
          "162835.702500",
          "162837.710000",
          "162839.720000",
          "162841.727500",
          "162843.735000",
          "162845.742500",
          "162847.750000",
          "162849.760000",
          "162851.767500",
          "162853.775000",
          "162855.782500",
          "162857.790000",
          "162859.800000",
          "162901.807500",
          "162903.815000",
          "162905.822500",
          "162907.832500",
          "162909.840000",
          "162911.847500",
          "162913.855000",
          "162915.862500",
          "162917.872500",
          "162919.880000",
          "162921.887500",
          "162923.895000",
          "162925.902500",
          "162927.912500",
          "162929.920000",
          "162931.927500",
          "162933.935000",
          "162935.942500",
          "162937.952500",
          "162939.960000",
          "162941.967500",
          "162943.975000",
          "162945.985000",
          "162947.992500",
          "162950.000000",
          "162952.007500",
          "162954.015000",
          "162956.025000",
          "162958.032500",
          "163000.040000",
          "163002.047500",
          "163004.055000",
          "163006.065000",
          "163008.072500",
          "163010.080000",
          "163012.087500",
          "163014.097500",
          "163016.105000",
          "163018.112500",
          "163020.120000",
          "163022.127500",
          "163024.137500",
          "163026.145000",
          "163028.152500",
          "163030.160000",
          "163032.167500",
          "163034.177500",
          "163036.185000",
          "163038.192500",
          "163040.200000",
          "163042.210000",
          "163044.217500",
          "163046.225000",
          "163048.232500",
          "163050.240000",
          "163052.250000",
          "163054.257500",
          "163056.265000",
          "163058.272500",
          "163100.280000",
          "163102.290000",
          "163104.297500",
          "163106.305000",
          "163108.312500",
          "163110.320000",
          "163112.330000",
          "163114.337500",
          "163116.345000",
          "163118.352500",
          "163120.362500",
          "163122.370000",
          "163124.377500",
          "163126.385000",
          "163128.392500",
          "163130.402500",
          "163132.410000",
          "163134.417500",
          "163136.425000",
          "163138.432500",
          "163140.442500",
          "163142.450000",
          "163144.457500",
          "163146.465000",
          "163148.475000",
          "163150.482500",
          "163152.490000",
          "163154.497500",
          "163156.505000",
          "163158.515000",
          "163200.522500",
          "163202.530000",
          "163204.537500",
          "163206.545000",
          "163208.555000",
          "163210.562500",
          "163212.570000",
          "163214.577500",
          "163216.587500",
          "163218.595000",
          "163220.602500",
          "163222.610000",
          "163224.617500",
          "163226.627500",
          "163228.635000",
          "163230.642500"
        ],
        "ContentTime": [
          "162523.406000",
          "162523.406000",
          "162523.406000",
          "162523.406000",
          "162523.406000",
          "162523.406000",
          "162523.406000",
          "162523.406000",
          "162523.421000",
          "162523.421000",
          "162523.421000",
          "162523.421000",
          "162523.421000",
          "162523.421000",
          "162523.421000",
          "162523.437000",
          "162523.437000",
          "162523.437000",
          "162523.437000",
          "162523.437000",
          "162523.437000",
          "162523.437000",
          "162523.453000",
          "162523.453000",
          "162523.453000",
          "162523.453000",
          "162603.390000",
          "162603.390000",
          "162603.406000",
          "162603.406000",
          "162603.406000",
          "162603.406000",
          "162603.406000",
          "162603.406000",
          "162603.406000",
          "162603.406000",
          "162603.421000",
          "162603.421000",
          "162603.421000",
          "162603.421000",
          "162603.421000",
          "162603.421000",
          "162603.421000",
          "162603.437000",
          "162603.437000",
          "162603.437000",
          "162643.390000",
          "162643.390000",
          "162643.390000",
          "162643.406000",
          "162643.406000",
          "162643.406000",
          "162643.406000",
          "162643.406000",
          "162643.406000",
          "162643.406000",
          "162643.421000",
          "162643.421000",
          "162643.421000",
          "162643.421000",
          "162643.421000",
          "162643.421000",
          "162643.421000",
          "162643.437000",
          "162643.437000",
          "162643.437000",
          "162723.390000",
          "162723.390000",
          "162723.406000",
          "162723.406000",
          "162723.406000",
          "162723.406000",
          "162723.406000",
          "162723.406000",
          "162723.406000",
          "162723.421000",
          "162723.421000",
          "162723.421000",
          "162723.421000",
          "162723.421000",
          "162723.421000",
          "162723.421000",
          "162723.421000",
          "162723.437000",
          "162723.437000",
          "162723.437000",
          "162803.390000",
          "162803.390000",
          "162803.406000",
          "162803.406000",
          "162803.406000",
          "162803.406000",
          "162803.406000",
          "162803.406000",
          "162803.406000",
          "162803.406000",
          "162803.421000",
          "162803.421000",
          "162803.421000",
          "162803.421000",
          "162803.421000",
          "162803.421000",
          "162803.421000",
          "162803.437000",
          "162803.437000",
          "162803.437000",
          "162843.390000",
          "162843.390000",
          "162843.406000",
          "162843.406000",
          "162843.406000",
          "162843.406000",
          "162843.406000",
          "162843.406000",
          "162843.406000",
          "162843.406000",
          "162843.421000",
          "162843.421000",
          "162843.421000",
          "162843.421000",
          "162843.421000",
          "162843.421000",
          "162843.421000",
          "162843.437000",
          "162843.437000",
          "162843.437000",
          "162923.390000",
          "162923.390000",
          "162923.406000",
          "162923.406000",
          "162923.406000",
          "162923.406000",
          "162923.406000",
          "162923.406000",
          "162923.406000",
          "162923.406000",
          "162923.421000",
          "162923.421000",
          "162923.421000",
          "162923.421000",
          "162923.421000",
          "162923.421000",
          "162923.421000",
          "162923.437000",
          "162923.437000",
          "162923.437000",
          "163003.390000",
          "163003.390000",
          "163003.390000",
          "163003.406000",
          "163003.406000",
          "163003.406000",
          "163003.406000",
          "163003.406000",
          "163003.406000",
          "163003.406000",
          "163003.421000",
          "163003.421000",
          "163003.421000",
          "163003.421000",
          "163003.421000",
          "163003.421000",
          "163003.421000",
          "163003.437000",
          "163003.437000",
          "163003.437000",
          "163043.390000",
          "163043.390000",
          "163043.406000",
          "163043.406000",
          "163043.406000",
          "163043.406000",
          "163043.406000",
          "163043.421000",
          "163043.421000",
          "163043.421000",
          "163043.421000",
          "163043.421000",
          "163043.421000",
          "163043.421000",
          "163043.437000",
          "163043.437000",
          "163043.437000",
          "163043.437000",
          "163043.437000",
          "163043.437000",
          "163123.390000",
          "163123.390000",
          "163123.406000",
          "163123.406000",
          "163123.406000",
          "163123.406000",
          "163123.406000",
          "163123.406000",
          "163123.406000",
          "163123.406000",
          "163123.421000",
          "163123.421000",
          "163123.421000",
          "163123.421000",
          "163123.421000",
          "163123.421000",
          "163123.421000",
          "163123.437000",
          "163123.437000",
          "163123.437000",
          "163203.390000",
          "163203.390000",
          "163203.406000",
          "163203.406000",
          "163203.406000",
          "163203.406000",
          "163203.406000",
          "163203.406000",
          "163203.406000",
          "163203.406000",
          "163203.421000",
          "163203.421000",
          "163203.421000",
          "163203.421000",
          "163203.421000",
          "163203.421000",
          "163203.421000",
          "163203.437000",
          "163203.437000",
          "163203.437000",
          "163229.453000",
          "163229.453000",
          "163229.453000",
          "163229.453000",
          "163229.453000",
          "163229.468000",
          "163229.468000",
          "163229.468000",
          "163229.468000",
          "163229.468000",
          "163229.468000",
          "163229.468000",
          "163229.484000",
          "163229.484000"
        ],
        "InstanceCreationTime": [
          "162523.406000",
          "162523.406000",
          "162523.406000",
          "162523.406000",
          "162523.406000",
          "162523.406000",
          "162523.406000",
          "162523.406000",
          "162523.421000",
          "162523.421000",
          "162523.421000",
          "162523.421000",
          "162523.421000",
          "162523.421000",
          "162523.421000",
          "162523.437000",
          "162523.437000",
          "162523.437000",
          "162523.437000",
          "162523.437000",
          "162523.437000",
          "162523.437000",
          "162523.453000",
          "162523.453000",
          "162523.453000",
          "162523.453000",
          "162603.390000",
          "162603.390000",
          "162603.406000",
          "162603.406000",
          "162603.406000",
          "162603.406000",
          "162603.406000",
          "162603.406000",
          "162603.406000",
          "162603.406000",
          "162603.421000",
          "162603.421000",
          "162603.421000",
          "162603.421000",
          "162603.421000",
          "162603.421000",
          "162603.421000",
          "162603.437000",
          "162603.437000",
          "162603.437000",
          "162643.390000",
          "162643.390000",
          "162643.390000",
          "162643.406000",
          "162643.406000",
          "162643.406000",
          "162643.406000",
          "162643.406000",
          "162643.406000",
          "162643.406000",
          "162643.421000",
          "162643.421000",
          "162643.421000",
          "162643.421000",
          "162643.421000",
          "162643.421000",
          "162643.421000",
          "162643.437000",
          "162643.437000",
          "162643.437000",
          "162723.390000",
          "162723.390000",
          "162723.406000",
          "162723.406000",
          "162723.406000",
          "162723.406000",
          "162723.406000",
          "162723.406000",
          "162723.406000",
          "162723.421000",
          "162723.421000",
          "162723.421000",
          "162723.421000",
          "162723.421000",
          "162723.421000",
          "162723.421000",
          "162723.421000",
          "162723.437000",
          "162723.437000",
          "162723.437000",
          "162803.390000",
          "162803.390000",
          "162803.406000",
          "162803.406000",
          "162803.406000",
          "162803.406000",
          "162803.406000",
          "162803.406000",
          "162803.406000",
          "162803.406000",
          "162803.421000",
          "162803.421000",
          "162803.421000",
          "162803.421000",
          "162803.421000",
          "162803.421000",
          "162803.421000",
          "162803.437000",
          "162803.437000",
          "162803.437000",
          "162843.390000",
          "162843.390000",
          "162843.406000",
          "162843.406000",
          "162843.406000",
          "162843.406000",
          "162843.406000",
          "162843.406000",
          "162843.406000",
          "162843.406000",
          "162843.421000",
          "162843.421000",
          "162843.421000",
          "162843.421000",
          "162843.421000",
          "162843.421000",
          "162843.421000",
          "162843.437000",
          "162843.437000",
          "162843.437000",
          "162923.390000",
          "162923.390000",
          "162923.406000",
          "162923.406000",
          "162923.406000",
          "162923.406000",
          "162923.406000",
          "162923.406000",
          "162923.406000",
          "162923.406000",
          "162923.421000",
          "162923.421000",
          "162923.421000",
          "162923.421000",
          "162923.421000",
          "162923.421000",
          "162923.421000",
          "162923.437000",
          "162923.437000",
          "162923.437000",
          "163003.390000",
          "163003.390000",
          "163003.390000",
          "163003.406000",
          "163003.406000",
          "163003.406000",
          "163003.406000",
          "163003.406000",
          "163003.406000",
          "163003.406000",
          "163003.421000",
          "163003.421000",
          "163003.421000",
          "163003.421000",
          "163003.421000",
          "163003.421000",
          "163003.421000",
          "163003.437000",
          "163003.437000",
          "163003.437000",
          "163043.390000",
          "163043.390000",
          "163043.406000",
          "163043.406000",
          "163043.406000",
          "163043.406000",
          "163043.406000",
          "163043.421000",
          "163043.421000",
          "163043.421000",
          "163043.421000",
          "163043.421000",
          "163043.421000",
          "163043.421000",
          "163043.437000",
          "163043.437000",
          "163043.437000",
          "163043.437000",
          "163043.437000",
          "163043.437000",
          "163123.390000",
          "163123.390000",
          "163123.406000",
          "163123.406000",
          "163123.406000",
          "163123.406000",
          "163123.406000",
          "163123.406000",
          "163123.406000",
          "163123.406000",
          "163123.421000",
          "163123.421000",
          "163123.421000",
          "163123.421000",
          "163123.421000",
          "163123.421000",
          "163123.421000",
          "163123.437000",
          "163123.437000",
          "163123.437000",
          "163203.390000",
          "163203.390000",
          "163203.406000",
          "163203.406000",
          "163203.406000",
          "163203.406000",
          "163203.406000",
          "163203.406000",
          "163203.406000",
          "163203.406000",
          "163203.421000",
          "163203.421000",
          "163203.421000",
          "163203.421000",
          "163203.421000",
          "163203.421000",
          "163203.421000",
          "163203.437000",
          "163203.437000",
          "163203.437000",
          "163229.453000",
          "163229.453000",
          "163229.453000",
          "163229.453000",
          "163229.453000",
          "163229.468000",
          "163229.468000",
          "163229.468000",
          "163229.468000",
          "163229.468000",
          "163229.468000",
          "163229.468000",
          "163229.484000",
          "163229.484000"
        ],
        "InstanceNumber": [
          1,
          2,
          3,
          4,
          5,
          6,
          7,
          8,
          9,
          10,
          11,
          12,
          13,
          14,
          15,
          16,
          17,
          18,
          19,
          20,
          21,
          22,
          23,
          24,
          25,
          26,
          27,
          28,
          29,
          30,
          31,
          32,
          33,
          34,
          35,
          36,
          37,
          38,
          39,
          40,
          41,
          42,
          43,
          44,
          45,
          46,
