{
  "aor": 0.0009025416666666665,
  "aqi": 0.008764407874999998,
  "bids_meta": {
    "AcquisitionMatrixPE": 68,
    "AcquisitionNumber": 1,
    "AcquisitionTime": "16:05:44.280000",
    "BandwidthPerPixelPhaseEncode": 31.289,
    "BaseResolution": 68,
    "CogAtlasID": "TODO",
    "CoilString": "C:HEA;HEP",
    "ConversionSoftware": "dcm2niix",
    "ConversionSoftwareVersion": "v1.0.20190902",
    "DerivedVendorReportedEchoSpacing": 0.000470002,
    "DeviceSerialNumber": "35450",
    "DwellTime": 3e-06,
    "EchoTime": 0.023,
    "EffectiveEchoSpacing": 0.000470002,
    "FlipAngle": 76,
    "ImageOrientationPatientDICOM": [
      0.999816,
      0.00237287,
      0.0190502,
      -4.19453e-08,
      0.992332,
      -0.123601
    ],
    "ImageType": [
      "ORIGINAL",
      "PRIMARY",
      "M",
      "ND",
      "MOSAIC"
    ],
    "ImagingFrequency": 123.218,
    "InPlanePhaseEncodingDirectionDICOM": "COL",
    "InstitutionAddress": "Univeristy_Ave._197_Newark_North_East_US_07102-1814",
    "InstitutionName": "RUBIC",
    "InstitutionalDepartmentName": "Department",
    "MRAcquisitionType": "2D",
    "MagneticFieldStrength": 3,
    "Manufacturer": "Siemens",
    "ManufacturersModelName": "TrioTim",
    "Modality": "MR",
    "PartialFourier": 1,
    "PatientPosition": "HFS",
    "PercentPhaseFOV": 100,
    "PhaseEncodingDirection": "j-",
    "PhaseEncodingSteps": 68,
    "PhaseResolution": 1,
    "PixelBandwidth": 2451,
    "ProcedureStepDescription": "Krekelberg_David",
    "ProtocolName": "ep2d_bold_RestEPI_1",
    "PulseSequenceDetails": "%SiemensSeq%_ep2d_bold",
    "ReceiveCoilName": "HeadMatrix",
    "ReconMatrixPE": 68,
    "RepetitionTime": 2,
    "SAR": 0.166127,
    "ScanOptions": "FS",
    "ScanningSequence": "EP",
    "SequenceName": "_epfid2d1_68",
    "SequenceVariant": "SK",
    "SeriesDescription": "ep2d_bold_RestEPI_1",
    "SeriesNumber": 7,
    "ShimSetting": [
      1977,
      -686,
      -7539,
      795,
      203,
      -32,
      -80,
      -88
    ],
    "SliceThickness": 2.5,
    "SliceTiming": [
      1.9525,
      1.895,
      1.84,
      1.785,
      1.73,
      1.6725,
      1.6175,
      1.5625,
      1.505,
      1.45,
      1.395,
      1.3375,
      1.2825,
      1.2275,
      1.17,
      1.115,
      1.06,
      1.005,
      0.9475,
      0.8925,
      0.8375,
      0.78,
      0.725,
      0.67,
      0.6125,
      0.5575,
      0.5025,
      0.4475,
      0.39,
      0.335,
      0.28,
      0.2225,
      0.1675,
      0.1125,
      0.055,
      0
    ],
    "SoftwareVersions": "syngo_MR_B19",
    "SpacingBetweenSlices": 3,
    "StationName": "MRC35450",
    "TaskName": "rest",
    "TotalReadoutTime": 0.0314901,
    "TxRefAmp": 342.309,
    "dataset": "<unset>",
    "dcmmeta_affine": [
      [
        -2.9994471073150635,
        -1.258358679478988e-07,
        0.05759233981370926,
        98.261474609375
      ],
      [
        -0.007118623703718185,
        2.9769957065582275,
        -0.37073609232902527,
        -73.89026641845703
      ],
      [
        0.0571507066488266,
        0.37080442905426025,
        2.976447105407715,
        -40.505184173583984
      ],
      [
        0.0,
        0.0,
        0.0,
        1.0
      ]
    ],
    "dcmmeta_reorient_transform": [
      [
        0.0,
        -1.0,
        0.0,
        67.0
      ],
      [
        1.0,
        0.0,
        0.0,
        0.0
      ],
      [
        0.0,
        0.0,
        1.0,
        0.0
      ],
      [
        0.0,
        0.0,
        0.0,
        1.0
      ]
    ],
    "dcmmeta_shape": [
      68,
      68,
      36,
      240
    ],
    "dcmmeta_slice_dim": 2,
    "dcmmeta_version": 0.6,
    "global": {
      "const": {
        "AcquisitionMatrix": [
          68,
          0,
          0,
          68
        ],
        "AngioFlag": "N",
        "BitsAllocated": 16,
        "BitsStored": 12,
        "Columns": 408,
        "EchoNumbers": 1,
        "EchoTime": 23.0,
        "EchoTrainLength": 1,
        "FlipAngle": 76.0,
        "HighBit": 11,
        "ImageOrientationPatient": [
          0.99981571201944,
          0.00237287453708,
          0.01905023531357,
          -4.194529e-08,
          0.99233193767192,
          -0.1236014784551
        ],
        "ImagePositionPatient": [
          -608.1674599466,
          -632.86790944874,
          37.659848870259
        ],
        "ImageType": [
          "ORIGINAL",
          "PRIMARY",
          "M",
          "ND",
          "MOSAIC"
        ],
        "ImagedNucleus": "1H",
        "ImagingFrequency": 123.218492,
        "InPlanePhaseEncodingDirection": "COL",
        "MRAcquisitionType": "2D",
        "MagneticFieldStrength": 3.0,
        "Manufacturer": "SIEMENS",
        "ManufacturerModelName": "TrioTim",
        "Modality": "MR",
        "NumberOfAverages": 1.0,
        "NumberOfPhaseEncodingSteps": 68,
        "PercentPhaseFieldOfView": 100.0,
        "PercentSampling": 100.0,
        "PerformedProcedureStepStartTime": "153524.312000",
        "PhotometricInterpretation": "MONOCHROME2",
        "PixelBandwidth": 2451.0,
        "PixelRepresentation": 0,
        "PixelSpacing": [
          3.0,
          3.0
        ],
        "ProtocolName": "ep2d_bold_RestEPI_1",
        "RepetitionTime": 2000.0,
        "Rows": 408,
        "SAR": 0.16612679496426,
        "SamplesPerPixel": 1,
        "ScanOptions": "FS",
        "ScanningSequence": "EP",
        "SequenceName": "*epfid2d1_68",
        "SequenceVariant": "SK",
        "SeriesDescription": "ep2d_bold_RestEPI_1",
        "SeriesNumber": 7,
        "SeriesTime": "160627.093000",
        "SliceLocation": -29.169546349373,
        "SliceThickness": 2.5,
        "SmallestImagePixelValue": 0,
        "SoftwareVersions": "syngo MR B19",
        "SpacingBetweenSlices": 2.9999998894837,
        "SpecificCharacterSet": "ISO_IR 100",
        "StudyID": "1",
        "StudyTime": "153524.250000",
        "TransmitCoilName": "Body",
        "VariableFlipAngleFlag": "N",
        "WindowCenterWidthExplanation": "Algo1",
        "dBdt": 0.0
      },
      "slices": {}
    },
    "modality": "bold",
    "run_id": 1,
    "subject_id": "219",
    "task_id": "rest",
    "time": {
      "samples": {
        "AcquisitionNumber": [
          1,
          2,
          3,
          4,
          5,
          6,
          7,
          8,
          9,
          10,
          11,
          12,
          13,
          14,
          15,
          16,
          17,
          18,
          19,
          20,
          21,
          22,
          23,
          24,
          25,
          26,
          27,
          28,
          29,
          30,
          31,
          32,
          33,
          34,
          35,
          36,
          37,
          38,
          39,
          40,
          41,
          42,
          43,
          44,
          45,
          46,
          47,
          48,
          49,
          50,
          51,
          52,
          53,
          54,
          55,
          56,
          57,
          58,
          59,
          60,
          61,
          62,
          63,
          64,
          65,
          66,
          67,
          68,
          69,
          70,
          71,
          72,
          73,
          74,
          75,
          76,
          77,
          78,
          79,
          80,
          81,
          82,
          83,
          84,
          85,
          86,
          87,
          88,
          89,
          90,
          91,
          92,
          93,
          94,
          95,
          96,
          97,
          98,
          99,
          100,
          101,
          102,
          103,
          104,
          105,
          106,
          107,
          108,
          109,
          110,
          111,
          112,
          113,
          114,
          115,
          116,
          117,
          118,
          119,
          120,
          121,
          122,
          123,
          124,
          125,
          126,
          127,
          128,
          129,
          130,
          131,
          132,
          133,
          134,
          135,
          136,
          137,
          138,
          139,
          140,
          141,
          142,
          143,
          144,
          145,
          146,
          147,
          148,
          149,
          150,
          151,
          152,
          153,
          154,
          155,
          156,
          157,
          158,
          159,
          160,
          161,
          162,
          163,
          164,
          165,
          166,
          167,
          168,
          169,
          170,
          171,
          172,
          173,
          174,
          175,
          176,
          177,
          178,
          179,
          180,
          181,
          182,
          183,
          184,
          185,
          186,
          187,
          188,
          189,
          190,
          191,
          192,
          193,
          194,
          195,
          196,
          197,
          198,
          199,
          200,
          201,
          202,
          203,
          204,
          205,
          206,
          207,
          208,
          209,
          210,
          211,
          212,
          213,
          214,
          215,
          216,
          217,
          218,
          219,
          220,
          221,
          222,
          223,
          224,
          225,
          226,
          227,
          228,
          229,
          230,
          231,
          232,
          233,
          234,
          235,
          236,
          237,
          238,
          239,
          240
        ],
        "AcquisitionTime": [
          "160544.280000",
          "160546.287500",
          "160548.295000",
          "160550.302500",
          "160552.312500",
          "160554.320000",
          "160556.327500",
          "160558.335000",
          "160600.342500",
          "160602.352500",
          "160604.360000",
          "160606.367500",
          "160608.375000",
          "160610.385000",
          "160612.392500",
          "160614.400000",
          "160616.407500",
          "160618.415000",
          "160620.425000",
          "160622.432500",
          "160624.440000",
          "160626.447500",
          "160628.455000",
          "160630.465000",
          "160632.472500",
          "160634.480000",
          "160636.487500",
          "160638.497500",
          "160640.505000",
          "160642.512500",
          "160644.520000",
          "160646.527500",
          "160648.537500",
          "160650.545000",
          "160652.552500",
          "160654.560000",
          "160656.567500",
          "160658.577500",
          "160700.585000",
          "160702.592500",
          "160704.600000",
          "160706.607500",
          "160708.617500",
          "160710.625000",
          "160712.632500",
          "160714.640000",
          "160716.650000",
          "160718.657500",
          "160720.665000",
          "160722.672500",
          "160724.680000",
          "160726.690000",
          "160728.697500",
          "160730.705000",
          "160732.712500",
          "160734.720000",
          "160736.730000",
          "160738.737500",
          "160740.745000",
          "160742.752500",
          "160744.762500",
          "160746.770000",
          "160748.777500",
          "160750.785000",
          "160752.792500",
          "160754.802500",
          "160756.810000",
          "160758.817500",
          "160800.825000",
          "160802.832500",
          "160804.842500",
          "160806.850000",
          "160808.857500",
          "160810.865000",
          "160812.875000",
          "160814.882500",
          "160816.890000",
          "160818.897500",
          "160820.905000",
          "160822.915000",
          "160824.922500",
          "160826.930000",
          "160828.937500",
          "160830.945000",
          "160832.955000",
          "160834.962500",
          "160836.970000",
          "160838.977500",
          "160840.985000",
          "160842.995000",
          "160845.002500",
          "160847.010000",
          "160849.017500",
          "160851.027500",
          "160853.035000",
          "160855.042500",
          "160857.050000",
          "160859.057500",
          "160901.067500",
          "160903.075000",
          "160905.082500",
          "160907.090000",
          "160909.097500",
          "160911.107500",
          "160913.115000",
          "160915.122500",
          "160917.130000",
          "160919.140000",
          "160921.147500",
          "160923.155000",
          "160925.162500",
          "160927.170000",
          "160929.180000",
          "160931.187500",
          "160933.195000",
          "160935.202500",
          "160937.210000",
          "160939.220000",
          "160941.227500",
          "160943.235000",
          "160945.242500",
          "160947.252500",
          "160949.260000",
          "160951.267500",
          "160953.275000",
          "160955.282500",
          "160957.292500",
          "160959.300000",
          "161001.307500",
          "161003.315000",
          "161005.322500",
          "161007.332500",
          "161009.340000",
          "161011.347500",
          "161013.355000",
          "161015.365000",
          "161017.372500",
          "161019.380000",
          "161021.387500",
          "161023.395000",
          "161025.405000",
          "161027.412500",
          "161029.420000",
          "161031.427500",
          "161033.435000",
          "161035.445000",
          "161037.452500",
          "161039.460000",
          "161041.467500",
          "161043.475000",
          "161045.485000",
          "161047.492500",
          "161049.500000",
          "161051.507500",
          "161053.517500",
          "161055.525000",
          "161057.532500",
          "161059.540000",
          "161101.547500",
          "161103.557500",
          "161105.565000",
          "161107.572500",
          "161109.580000",
          "161111.587500",
          "161113.597500",
          "161115.605000",
          "161117.612500",
          "161119.620000",
          "161121.630000",
          "161123.637500",
          "161125.645000",
          "161127.652500",
          "161129.660000",
          "161131.670000",
          "161133.677500",
          "161135.685000",
          "161137.692500",
          "161139.700000",
          "161141.710000",
          "161143.717500",
          "161145.725000",
          "161147.732500",
          "161149.742500",
          "161151.750000",
          "161153.757500",
          "161155.765000",
          "161157.772500",
          "161159.782500",
          "161201.790000",
          "161203.797500",
          "161205.805000",
          "161207.812500",
          "161209.822500",
          "161211.830000",
          "161213.837500",
          "161215.845000",
          "161217.852500",
          "161219.862500",
          "161221.870000",
          "161223.877500",
          "161225.885000",
          "161227.895000",
          "161229.902500",
          "161231.910000",
          "161233.917500",
          "161235.925000",
          "161237.935000",
          "161239.942500",
          "161241.950000",
          "161243.957500",
          "161245.965000",
          "161247.975000",
          "161249.982500",
          "161251.990000",
          "161253.997500",
          "161256.007500",
          "161258.015000",
          "161300.022500",
          "161302.030000",
          "161304.037500",
          "161306.047500",
          "161308.055000",
          "161310.062500",
          "161312.070000",
          "161314.077500",
          "161316.087500",
          "161318.095000",
          "161320.102500",
          "161322.110000",
          "161324.120000",
          "161326.127500",
          "161328.135000",
          "161330.142500",
          "161332.150000",
          "161334.160000",
          "161336.167500",
          "161338.175000",
          "161340.182500",
          "161342.190000",
          "161344.200000"
        ],
        "ContentTime": [
          "160627.093000",
          "160627.109000",
          "160627.109000",
          "160627.109000",
          "160627.109000",
          "160627.125000",
          "160627.125000",
          "160627.125000",
          "160627.125000",
          "160627.125000",
          "160627.125000",
          "160627.125000",
          "160627.125000",
          "160627.140000",
          "160627.140000",
          "160627.140000",
          "160627.140000",
          "160627.140000",
          "160627.140000",
          "160627.140000",
          "160627.156000",
          "160627.156000",
          "160707.093000",
          "160707.093000",
          "160707.093000",
          "160707.109000",
          "160707.109000",
          "160707.109000",
          "160707.109000",
          "160707.109000",
          "160707.109000",
          "160707.109000",
          "160707.125000",
          "160707.125000",
          "160707.125000",
          "160707.125000",
          "160707.125000",
          "160707.125000",
          "160707.125000",
          "160707.140000",
          "160707.140000",
          "160707.140000",
          "160747.093000",
          "160747.093000",
          "160747.093000",
          "160747.109000",
          "160747.109000",
          "160747.109000",
          "160747.109000",
          "160747.109000",
          "160747.109000",
          "160747.109000",
          "160747.125000",
          "160747.125000",
          "160747.125000",
          "160747.125000",
          "160747.125000",
          "160747.125000",
          "160747.125000",
          "160747.140000",
          "160747.140000",
          "160747.140000",
          "160827.093000",
          "160827.093000",
          "160827.109000",
          "160827.109000",
          "160827.109000",
          "160827.109000",
          "160827.109000",
          "160827.109000",
          "160827.109000",
          "160827.109000",
          "160827.125000",
          "160827.125000",
          "160827.125000",
          "160827.125000",
          "160827.125000",
          "160827.125000",
          "160827.125000",
          "160827.140000",
          "160827.140000",
          "160827.140000",
          "160907.093000",
          "160907.093000",
          "160907.093000",
          "160907.109000",
          "160907.109000",
          "160907.109000",
          "160907.109000",
          "160907.109000",
          "160907.125000",
          "160907.125000",
          "160907.125000",
          "160907.125000",
          "160907.125000",
          "160907.125000",
          "160907.125000",
          "160907.140000",
          "160907.140000",
          "160907.140000",
          "160907.140000",
          "160907.140000",
          "160947.093000",
          "160947.093000",
          "160947.093000",
          "160947.109000",
          "160947.109000",
          "160947.109000",
          "160947.109000",
          "160947.109000",
          "160947.109000",
          "160947.109000",
          "160947.109000",
          "160947.125000",
          "160947.125000",
          "160947.125000",
          "160947.125000",
          "160947.125000",
          "160947.125000",
          "160947.125000",
          "160947.140000",
          "160947.140000",
          "161027.093000",
          "161027.093000",
          "161027.093000",
          "161027.109000",
          "161027.109000",
          "161027.109000",
          "161027.109000",
          "161027.109000",
          "161027.109000",
          "161027.109000",
          "161027.109000",
          "161027.125000",
          "161027.125000",
          "161027.125000",
          "161027.125000",
          "161027.125000",
          "161027.125000",
          "161027.125000",
          "161027.140000",
          "161027.140000",
          "161107.093000",
          "161107.093000",
          "161107.093000",
          "161107.109000",
          "161107.109000",
          "161107.109000",
          "161107.109000",
          "161107.109000",
          "161107.109000",
          "161107.109000",
          "161107.109000",
          "161107.125000",
          "161107.125000",
          "161107.125000",
          "161107.125000",
          "161107.125000",
          "161107.125000",
          "161107.125000",
          "161107.125000",
          "161107.140000",
          "161147.093000",
          "161147.093000",
          "161147.109000",
          "161147.109000",
          "161147.109000",
          "161147.109000",
          "161147.109000",
          "161147.109000",
          "161147.109000",
          "161147.109000",
          "161147.125000",
          "161147.125000",
          "161147.125000",
          "161147.125000",
          "161147.125000",
          "161147.125000",
          "161147.125000",
          "161147.140000",
          "161147.140000",
          "161147.140000",
          "161207.093000",
          "161207.093000",
          "161207.093000",
          "161207.109000",
          "161207.109000",
          "161207.109000",
          "161207.109000",
          "161207.125000",
          "161207.125000",
          "161207.125000",
          "161247.093000",
          "161247.093000",
          "161247.093000",
          "161247.109000",
          "161247.109000",
          "161247.109000",
          "161247.109000",
          "161247.109000",
          "161247.109000",
          "161247.109000",
          "161247.109000",
          "161247.125000",
          "161247.125000",
          "161247.125000",
          "161247.125000",
          "161247.125000",
          "161247.125000",
          "161247.125000",
          "161247.140000",
          "161247.140000",
          "161327.093000",
          "161327.093000",
          "161327.093000",
          "161327.109000",
          "161327.109000",
          "161327.109000",
          "161327.109000",
          "161327.109000",
          "161327.109000",
          "161327.109000",
          "161327.125000",
          "161327.125000",
          "161327.125000",
          "161327.125000",
          "161327.125000",
          "161327.125000",
          "161327.125000",
          "161327.125000",
          "161327.140000",
          "161327.140000",
          "161342.593000",
          "161342.593000",
          "161342.593000",
          "161342.593000",
          "161342.593000",
          "161342.609000",
          "161342.609000",
          "161342.609000"
        ],
        "InstanceCreationTime": [
          "160627.093000",
          "160627.109000",
          "160627.109000",
          "160627.109000",
          "160627.109000",
          "160627.125000",
          "160627.125000",
          "160627.125000",
          "160627.125000",
          "160627.125000",
          "160627.125000",
          "160627.125000",
          "160627.125000",
          "160627.140000",
          "160627.140000",
          "160627.140000",
          "160627.140000",
          "160627.140000",
          "160627.140000",
          "160627.140000",
          "160627.156000",
          "160627.156000",
          "160707.093000",
          "160707.093000",
          "160707.093000",
          "160707.109000",
          "160707.109000",
          "160707.109000",
          "160707.109000",
          "160707.109000",
          "160707.109000",
          "160707.109000",
          "160707.125000",
          "160707.125000",
          "160707.125000",
          "160707.125000",
          "160707.125000",
          "160707.125000",
          "160707.125000",
          "160707.140000",
          "160707.140000",
          "160707.140000",
          "160747.093000",
          "160747.093000",
          "160747.093000",
          "160747.109000",
          "160747.109000",
          "160747.109000",
          "160747.109000",
          "160747.109000",
          "160747.109000",
          "160747.109000",
          "160747.125000",
          "160747.125000",
          "160747.125000",
          "160747.125000",
          "160747.125000",
          "160747.125000",
          "160747.125000",
          "160747.140000",
          "160747.140000",
          "160747.140000",
          "160827.093000",
          "160827.093000",
          "160827.109000",
          "160827.109000",
          "160827.109000",
          "160827.109000",
          "160827.109000",
          "160827.109000",
          "160827.109000",
          "160827.109000",
          "160827.125000",
          "160827.125000",
          "160827.125000",
          "160827.125000",
          "160827.125000",
          "160827.125000",
          "160827.125000",
          "160827.140000",
          "160827.140000",
          "160827.140000",
          "160907.093000",
          "160907.093000",
          "160907.093000",
          "160907.109000",
          "160907.109000",
          "160907.109000",
          "160907.109000",
          "160907.109000",
          "160907.125000",
          "160907.125000",
          "160907.125000",
          "160907.125000",
          "160907.125000",
          "160907.125000",
          "160907.125000",
          "160907.140000",
          "160907.140000",
          "160907.140000",
          "160907.140000",
          "160907.140000",
          "160947.093000",
          "160947.093000",
          "160947.093000",
          "160947.109000",
          "160947.109000",
          "160947.109000",
          "160947.109000",
          "160947.109000",
          "160947.109000",
          "160947.109000",
          "160947.109000",
          "160947.125000",
          "160947.125000",
          "160947.125000",
          "160947.125000",
          "160947.125000",
          "160947.125000",
          "160947.125000",
          "160947.140000",
          "160947.140000",
          "161027.093000",
          "161027.093000",
          "161027.093000",
          "161027.109000",
          "161027.109000",
          "161027.109000",
          "161027.109000",
          "161027.109000",
          "161027.109000",
          "161027.109000",
          "161027.109000",
          "161027.125000",
          "161027.125000",
          "161027.125000",
          "161027.125000",
          "161027.125000",
          "161027.125000",
          "161027.125000",
          "161027.140000",
          "161027.140000",
          "161107.093000",
          "161107.093000",
          "161107.093000",
          "161107.109000",
          "161107.109000",
          "161107.109000",
          "161107.109000",
          "161107.109000",
          "161107.109000",
          "161107.109000",
          "161107.109000",
          "161107.125000",
          "161107.125000",
          "161107.125000",
          "161107.125000",
          "161107.125000",
          "161107.125000",
          "161107.125000",
          "161107.125000",
          "161107.140000",
          "161147.093000",
          "161147.093000",
          "161147.109000",
          "161147.109000",
          "161147.109000",
          "161147.109000",
          "161147.109000",
          "161147.109000",
          "161147.109000",
          "161147.109000",
          "161147.125000",
          "161147.125000",
          "161147.125000",
          "161147.125000",
          "161147.125000",
          "161147.125000",
          "161147.125000",
          "161147.140000",
          "161147.140000",
          "161147.140000",
          "161207.093000",
          "161207.093000",
          "161207.093000",
          "161207.109000",
          "161207.109000",
          "161207.109000",
          "161207.109000",
          "161207.125000",
          "161207.125000",
          "161207.125000",
          "161247.093000",
          "161247.093000",
          "161247.093000",
          "161247.109000",
          "161247.109000",
          "161247.109000",
          "161247.109000",
          "161247.109000",
          "161247.109000",
          "161247.109000",
          "161247.109000",
          "161247.125000",
          "161247.125000",
          "161247.125000",
          "161247.125000",
          "161247.125000",
          "161247.125000",
          "161247.125000",
          "161247.140000",
          "161247.140000",
          "161327.093000",
          "161327.093000",
          "161327.093000",
          "161327.109000",
          "161327.109000",
          "161327.109000",
          "161327.109000",
          "161327.109000",
          "161327.109000",
          "161327.109000",
          "161327.125000",
          "161327.125000",
          "161327.125000",
          "161327.125000",
          "161327.125000",
          "161327.125000",
          "161327.125000",
          "161327.125000",
          "161327.140000",
          "161327.140000",
          "161342.593000",
          "161342.593000",
          "161342.593000",
          "161342.593000",
          "161342.593000",
          "161342.609000",
          "161342.609000",
          "161342.609000"
        ],
        "InstanceNumber": [
          1,
          2,
          3,
          4,
          5,
          6,
          7,
          8,
          9,
          10,
          11,
          12,
          13,
          14,
          15,
          16,
          17,
          18,
          19,
          20,
          21,
          22,
          23,
          24,
          25,
          26,
          27,
          28,
          29,
          30,
          31,
          32,
          33,
          34,
          35,
          36,
          37,
          38,
          39,
          40,
          41,
          42,
          43,
          44,
          45,
          46,
