{
  "aor": 0.0010265503875968994,
  "aqi": 0.010149936511627907,
  "bids_meta": {
    "AcquisitionMatrixPE": 68,
    "AcquisitionNumber": 1,
    "AcquisitionTime": "15:55:25.635000",
    "BandwidthPerPixelPhaseEncode": 31.289,
    "BaseResolution": 68,
    "CogAtlasID": "TODO",
    "CoilString": "C:HEA;HEP",
    "ConversionSoftware": "dcm2niix",
    "ConversionSoftwareVersion": "v1.0.20190902",
    "DerivedVendorReportedEchoSpacing": 0.000470002,
    "DeviceSerialNumber": "35450",
    "DwellTime": 3e-06,
    "EchoTime": 0.023,
    "EffectiveEchoSpacing": 0.000470002,
    "FlipAngle": 76,
    "ImageOrientationPatientDICOM": [
      0.999816,
      0.00237287,
      0.0190502,
      -4.19453e-08,
      0.992332,
      -0.123601
    ],
    "ImageType": [
      "ORIGINAL",
      "PRIMARY",
      "M",
      "ND",
      "MOSAIC"
    ],
    "ImagingFrequency": 123.218,
    "InPlanePhaseEncodingDirectionDICOM": "COL",
    "InstitutionAddress": "Univeristy_Ave._197_Newark_North_East_US_07102-1814",
    "InstitutionName": "RUBIC",
    "InstitutionalDepartmentName": "Department",
    "MRAcquisitionType": "2D",
    "MagneticFieldStrength": 3,
    "Manufacturer": "Siemens",
    "ManufacturersModelName": "TrioTim",
    "Modality": "MR",
    "PartialFourier": 1,
    "PatientPosition": "HFS",
    "PercentPhaseFOV": 100,
    "PhaseEncodingDirection": "j-",
    "PhaseEncodingSteps": 68,
    "PhaseResolution": 1,
    "PixelBandwidth": 2451,
    "ProcedureStepDescription": "Krekelberg_David",
    "ProtocolName": "ep2d_bold_CardGameEPI_1",
    "PulseSequenceDetails": "%SiemensSeq%_ep2d_bold",
    "ReceiveCoilName": "HeadMatrix",
    "ReconMatrixPE": 68,
    "RepetitionTime": 2,
    "SAR": 0.166162,
    "ScanOptions": "FS",
    "ScanningSequence": "EP",
    "SequenceName": "_epfid2d1_68",
    "SequenceVariant": "SK",
    "SeriesDescription": "ep2d_bold_CardGameEPI_1",
    "SeriesNumber": 6,
    "ShimSetting": [
      1977,
      -686,
      -7539,
      795,
      203,
      -32,
      -80,
      -88
    ],
    "SliceThickness": 2.5,
    "SliceTiming": [
      1.9525,
      1.895,
      1.84,
      1.785,
      1.7275,
      1.6725,
      1.6175,
      1.5625,
      1.505,
      1.45,
      1.395,
      1.3375,
      1.2825,
      1.2275,
      1.17,
      1.115,
      1.06,
      1.005,
      0.9475,
      0.8925,
      0.8375,
      0.78,
      0.725,
      0.67,
      0.6125,
      0.5575,
      0.5025,
      0.445,
      0.39,
      0.335,
      0.28,
      0.2225,
      0.1675,
      0.1125,
      0.055,
      0
    ],
    "SoftwareVersions": "syngo_MR_B19",
    "SpacingBetweenSlices": 3,
    "StationName": "MRC35450",
    "TaskName": "cardgame",
    "TotalReadoutTime": 0.0314901,
    "TxRefAmp": 342.309,
    "dataset": "<unset>",
    "dcmmeta_affine": [
      [
        -2.9994471073150635,
        -1.258358679478988e-07,
        0.05759233981370926,
        98.261474609375
      ],
      [
        -0.007118623703718185,
        2.9769957065582275,
        -0.37073609232902527,
        -73.89026641845703
      ],
      [
        0.0571507066488266,
        0.37080442905426025,
        2.976447105407715,
        -40.505184173583984
      ],
      [
        0.0,
        0.0,
        0.0,
        1.0
      ]
    ],
    "dcmmeta_reorient_transform": [
      [
        0.0,
        -1.0,
        0.0,
        67.0
      ],
      [
        1.0,
        0.0,
        0.0,
        0.0
      ],
      [
        0.0,
        0.0,
        1.0,
        0.0
      ],
      [
        0.0,
        0.0,
        0.0,
        1.0
      ]
    ],
    "dcmmeta_shape": [
      68,
      68,
      36,
      258
    ],
    "dcmmeta_slice_dim": 2,
    "dcmmeta_version": 0.6,
    "global": {
      "const": {
        "AcquisitionMatrix": [
          68,
          0,
          0,
          68
        ],
        "AngioFlag": "N",
        "BitsAllocated": 16,
        "BitsStored": 12,
        "Columns": 408,
        "EchoNumbers": 1,
        "EchoTime": 23.0,
        "EchoTrainLength": 1,
        "FlipAngle": 76.0,
        "HighBit": 11,
        "ImageOrientationPatient": [
          0.99981571201944,
          0.00237287453708,
          0.01905023531357,
          -4.194529e-08,
          0.99233193767192,
          -0.1236014784551
        ],
        "ImagePositionPatient": [
          -608.1674599466,
          -632.86790944874,
          37.659848870259
        ],
        "ImageType": [
          "ORIGINAL",
          "PRIMARY",
          "M",
          "ND",
          "MOSAIC"
        ],
        "ImagedNucleus": "1H",
        "ImagingFrequency": 123.218472,
        "InPlanePhaseEncodingDirection": "COL",
        "MRAcquisitionType": "2D",
        "MagneticFieldStrength": 3.0,
        "Manufacturer": "SIEMENS",
        "ManufacturerModelName": "TrioTim",
        "Modality": "MR",
        "NumberOfAverages": 1.0,
        "NumberOfPhaseEncodingSteps": 68,
        "PercentPhaseFieldOfView": 100.0,
        "PercentSampling": 100.0,
        "PerformedProcedureStepStartTime": "153524.312000",
        "PhotometricInterpretation": "MONOCHROME2",
        "PixelBandwidth": 2451.0,
        "PixelRepresentation": 0,
        "PixelSpacing": [
          3.0,
          3.0
        ],
        "ProtocolName": "ep2d_bold_CardGameEPI_1",
        "RepetitionTime": 2000.0,
        "Rows": 408,
        "SAR": 0.16616233630214,
        "SamplesPerPixel": 1,
        "ScanOptions": "FS",
        "ScanningSequence": "EP",
        "SequenceName": "*epfid2d1_68",
        "SequenceVariant": "SK",
        "SeriesDescription": "ep2d_bold_CardGameEPI_1",
        "SeriesNumber": 6,
        "SeriesTime": "155623.390000",
        "SliceLocation": -29.169546349373,
        "SliceThickness": 2.5,
        "SmallestImagePixelValue": 0,
        "SoftwareVersions": "syngo MR B19",
        "SpacingBetweenSlices": 2.9999998894837,
        "SpecificCharacterSet": "ISO_IR 100",
        "StudyID": "1",
        "StudyTime": "153524.250000",
        "TransmitCoilName": "Body",
        "VariableFlipAngleFlag": "N",
        "WindowCenterWidthExplanation": "Algo1",
        "dBdt": 0.0
      },
      "slices": {}
    },
    "modality": "bold",
    "run_id": 1,
    "subject_id": "219",
    "task_id": "cardgame",
    "time": {
      "samples": {
        "AcquisitionNumber": [
          1,
          2,
          3,
          4,
          5,
          6,
          7,
          8,
          9,
          10,
          11,
          12,
          13,
          14,
          15,
          16,
          17,
          18,
          19,
          20,
          21,
          22,
          23,
          24,
          25,
          26,
          27,
          28,
          29,
          30,
          31,
          32,
          33,
          34,
          35,
          36,
          37,
          38,
          39,
          40,
          41,
          42,
          43,
          44,
          45,
          46,
          47,
          48,
          49,
          50,
          51,
          52,
          53,
          54,
          55,
          56,
          57,
          58,
          59,
          60,
          61,
          62,
          63,
          64,
          65,
          66,
          67,
          68,
          69,
          70,
          71,
          72,
          73,
          74,
          75,
          76,
          77,
          78,
          79,
          80,
          81,
          82,
          83,
          84,
          85,
          86,
          87,
          88,
          89,
          90,
          91,
          92,
          93,
          94,
          95,
          96,
          97,
          98,
          99,
          100,
          101,
          102,
          103,
          104,
          105,
          106,
          107,
          108,
          109,
          110,
          111,
          112,
          113,
          114,
          115,
          116,
          117,
          118,
          119,
          120,
          121,
          122,
          123,
          124,
          125,
          126,
          127,
          128,
          129,
          130,
          131,
          132,
          133,
          134,
          135,
          136,
          137,
          138,
          139,
          140,
          141,
          142,
          143,
          144,
          145,
          146,
          147,
          148,
          149,
          150,
          151,
          152,
          153,
          154,
          155,
          156,
          157,
          158,
          159,
          160,
          161,
          162,
          163,
          164,
          165,
          166,
          167,
          168,
          169,
          170,
          171,
          172,
          173,
          174,
          175,
          176,
          177,
          178,
          179,
          180,
          181,
          182,
          183,
          184,
          185,
          186,
          187,
          188,
          189,
          190,
          191,
          192,
          193,
          194,
          195,
          196,
          197,
          198,
          199,
          200,
          201,
          202,
          203,
          204,
          205,
          206,
          207,
          208,
          209,
          210,
          211,
          212,
          213,
          214,
          215,
          216,
          217,
          218,
          219,
          220,
          221,
          222,
          223,
          224,
          225,
          226,
          227,
          228,
          229,
          230,
          231,
          232,
          233,
          234,
          235,
          236,
          237,
          238,
          239,
          240,
          241,
          242,
          243,
          244,
          245,
          246,
          247,
          248,
          249,
          250,
          251,
          252,
          253,
          254,
          255,
          256,
          257,
          258
        ],
        "AcquisitionTime": [
          "155525.635000",
          "155527.642500",
          "155529.650000",
          "155531.657500",
          "155533.667500",
          "155535.675000",
          "155537.682500",
          "155539.690000",
          "155541.697500",
          "155543.707500",
          "155545.715000",
          "155547.722500",
          "155549.730000",
          "155551.737500",
          "155553.747500",
          "155555.755000",
          "155557.762500",
          "155559.770000",
          "155601.780000",
          "155603.787500",
          "155605.795000",
          "155607.802500",
          "155609.810000",
          "155611.820000",
          "155613.827500",
          "155615.835000",
          "155617.842500",
          "155619.850000",
          "155621.860000",
          "155623.867500",
          "155625.875000",
          "155627.882500",
          "155629.892500",
          "155631.900000",
          "155633.907500",
          "155635.915000",
          "155637.922500",
          "155639.932500",
          "155641.940000",
          "155643.947500",
          "155645.955000",
          "155647.962500",
          "155649.972500",
          "155651.980000",
          "155653.987500",
          "155655.995000",
          "155658.002500",
          "155700.012500",
          "155702.020000",
          "155704.027500",
          "155706.035000",
          "155708.045000",
          "155710.052500",
          "155712.060000",
          "155714.067500",
          "155716.075000",
          "155718.085000",
          "155720.092500",
          "155722.100000",
          "155724.107500",
          "155726.115000",
          "155728.125000",
          "155730.132500",
          "155732.140000",
          "155734.147500",
          "155736.157500",
          "155738.165000",
          "155740.172500",
          "155742.180000",
          "155744.187500",
          "155746.197500",
          "155748.205000",
          "155750.212500",
          "155752.220000",
          "155754.227500",
          "155756.237500",
          "155758.245000",
          "155800.252500",
          "155802.260000",
          "155804.270000",
          "155806.277500",
          "155808.285000",
          "155810.292500",
          "155812.300000",
          "155814.310000",
          "155816.317500",
          "155818.325000",
          "155820.332500",
          "155822.340000",
          "155824.350000",
          "155826.357500",
          "155828.365000",
          "155830.372500",
          "155832.380000",
          "155834.390000",
          "155836.397500",
          "155838.405000",
          "155840.412500",
          "155842.422500",
          "155844.430000",
          "155846.437500",
          "155848.445000",
          "155850.452500",
          "155852.462500",
          "155854.470000",
          "155856.477500",
          "155858.485000",
          "155900.492500",
          "155902.502500",
          "155904.510000",
          "155906.517500",
          "155908.525000",
          "155910.535000",
          "155912.542500",
          "155914.550000",
          "155916.557500",
          "155918.565000",
          "155920.575000",
          "155922.582500",
          "155924.590000",
          "155926.597500",
          "155928.605000",
          "155930.615000",
          "155932.622500",
          "155934.630000",
          "155936.637500",
          "155938.647500",
          "155940.655000",
          "155942.662500",
          "155944.670000",
          "155946.677500",
          "155948.687500",
          "155950.695000",
          "155952.702500",
          "155954.710000",
          "155956.717500",
          "155958.727500",
          "160000.735000",
          "160002.742500",
          "160004.750000",
          "160006.757500",
          "160008.767500",
          "160010.775000",
          "160012.782500",
          "160014.790000",
          "160016.800000",
          "160018.807500",
          "160020.815000",
          "160022.822500",
          "160024.830000",
          "160026.840000",
          "160028.847500",
          "160030.855000",
          "160032.862500",
          "160034.870000",
          "160036.880000",
          "160038.887500",
          "160040.895000",
          "160042.902500",
          "160044.912500",
          "160046.920000",
          "160048.927500",
          "160050.935000",
          "160052.942500",
          "160054.952500",
          "160056.960000",
          "160058.967500",
          "160100.975000",
          "160102.982500",
          "160104.992500",
          "160107.000000",
          "160109.007500",
          "160111.015000",
          "160113.025000",
          "160115.032500",
          "160117.040000",
          "160119.047500",
          "160121.055000",
          "160123.065000",
          "160125.072500",
          "160127.080000",
          "160129.087500",
          "160131.095000",
          "160133.105000",
          "160135.112500",
          "160137.120000",
          "160139.127500",
          "160141.137500",
          "160143.145000",
          "160145.152500",
          "160147.160000",
          "160149.167500",
          "160151.177500",
          "160153.185000",
          "160155.192500",
          "160157.200000",
          "160159.207500",
          "160201.217500",
          "160203.225000",
          "160205.232500",
          "160207.240000",
          "160209.247500",
          "160211.257500",
          "160213.265000",
          "160215.272500",
          "160217.280000",
          "160219.290000",
          "160221.297500",
          "160223.305000",
          "160225.312500",
          "160227.320000",
          "160229.330000",
          "160231.337500",
          "160233.345000",
          "160235.352500",
          "160237.360000",
          "160239.370000",
          "160241.377500",
          "160243.385000",
          "160245.392500",
          "160247.402500",
          "160249.410000",
          "160251.417500",
          "160253.425000",
          "160255.432500",
          "160257.442500",
          "160259.450000",
          "160301.457500",
          "160303.465000",
          "160305.472500",
          "160307.482500",
          "160309.490000",
          "160311.497500",
          "160313.505000",
          "160315.515000",
          "160317.522500",
          "160319.530000",
          "160321.537500",
          "160323.545000",
          "160325.555000",
          "160327.562500",
          "160329.570000",
          "160331.577500",
          "160333.585000",
          "160335.595000",
          "160337.602500",
          "160339.610000",
          "160341.617500",
          "160343.625000",
          "160345.635000",
          "160347.642500",
          "160349.650000",
          "160351.657500",
          "160353.667500",
          "160355.675000",
          "160357.682500",
          "160359.690000",
          "160401.697500"
        ],
        "ContentTime": [
          "155623.390000",
          "155623.406000",
          "155623.406000",
          "155623.406000",
          "155623.406000",
          "155623.406000",
          "155623.406000",
          "155623.406000",
          "155623.421000",
          "155623.421000",
          "155623.421000",
          "155623.421000",
          "155623.421000",
          "155623.421000",
          "155623.437000",
          "155623.437000",
          "155623.437000",
          "155623.437000",
          "155623.437000",
          "155623.437000",
          "155623.437000",
          "155623.437000",
          "155623.453000",
          "155623.453000",
          "155623.453000",
          "155623.453000",
          "155623.453000",
          "155623.453000",
          "155623.453000",
          "155703.390000",
          "155703.390000",
          "155703.390000",
          "155703.406000",
          "155703.406000",
          "155703.406000",
          "155703.406000",
          "155703.406000",
          "155703.406000",
          "155703.406000",
          "155703.421000",
          "155703.421000",
          "155703.421000",
          "155703.421000",
          "155703.421000",
          "155703.421000",
          "155703.421000",
          "155703.437000",
          "155703.437000",
          "155703.437000",
          "155743.390000",
          "155743.390000",
          "155743.390000",
          "155743.406000",
          "155743.406000",
          "155743.406000",
          "155743.406000",
          "155743.406000",
          "155743.421000",
          "155743.421000",
          "155743.421000",
          "155743.421000",
          "155743.421000",
          "155743.421000",
          "155743.421000",
          "155743.421000",
          "155743.437000",
          "155743.437000",
          "155743.437000",
          "155743.437000",
          "155823.390000",
          "155823.390000",
          "155823.390000",
          "155823.406000",
          "155823.406000",
          "155823.406000",
          "155823.406000",
          "155823.406000",
          "155823.406000",
          "155823.421000",
          "155823.421000",
          "155823.421000",
          "155823.421000",
          "155823.421000",
          "155823.421000",
          "155823.421000",
          "155823.437000",
          "155823.437000",
          "155823.437000",
          "155823.437000",
          "155903.390000",
          "155903.390000",
          "155903.390000",
          "155903.406000",
          "155903.406000",
          "155903.406000",
          "155903.406000",
          "155903.406000",
          "155903.406000",
          "155903.406000",
          "155903.421000",
          "155903.421000",
          "155903.421000",
          "155903.421000",
          "155903.421000",
          "155903.421000",
          "155903.421000",
          "155903.421000",
          "155903.437000",
          "155903.437000",
          "155943.390000",
          "155943.390000",
          "155943.390000",
          "155943.406000",
          "155943.421000",
          "155943.421000",
          "155943.421000",
          "155943.421000",
          "155943.421000",
          "155943.421000",
          "155943.421000",
          "155943.421000",
          "155943.437000",
          "155943.437000",
          "155943.437000",
          "155943.437000",
          "155943.437000",
          "155943.437000",
          "155943.437000",
          "155943.453000",
          "160023.390000",
          "160023.390000",
          "160023.390000",
          "160023.406000",
          "160023.406000",
          "160023.406000",
          "160023.406000",
          "160023.406000",
          "160023.406000",
          "160023.406000",
          "160023.406000",
          "160023.421000",
          "160023.421000",
          "160023.421000",
          "160023.421000",
          "160023.421000",
          "160023.421000",
          "160023.421000",
          "160023.437000",
          "160023.437000",
          "160103.390000",
          "160103.390000",
          "160103.390000",
          "160103.406000",
          "160103.406000",
          "160103.406000",
          "160103.406000",
          "160103.406000",
          "160103.406000",
          "160103.406000",
          "160103.421000",
          "160103.421000",
          "160103.421000",
          "160103.421000",
          "160103.421000",
          "160103.421000",
          "160103.421000",
          "160103.437000",
          "160103.437000",
          "160103.437000",
          "160143.390000",
          "160143.390000",
          "160143.390000",
          "160143.406000",
          "160143.406000",
          "160143.406000",
          "160143.406000",
          "160143.406000",
          "160143.406000",
          "160143.406000",
          "160143.421000",
          "160143.421000",
          "160143.421000",
          "160143.421000",
          "160143.421000",
          "160143.421000",
          "160143.421000",
          "160143.437000",
          "160143.437000",
          "160143.437000",
          "160203.390000",
          "160203.390000",
          "160203.390000",
          "160203.406000",
          "160203.406000",
          "160203.406000",
          "160203.406000",
          "160203.406000",
          "160203.406000",
          "160203.406000",
          "160243.390000",
          "160243.390000",
          "160243.390000",
          "160243.406000",
          "160243.406000",
          "160243.406000",
          "160243.406000",
          "160243.406000",
          "160243.406000",
          "160243.406000",
          "160243.421000",
          "160243.421000",
          "160243.421000",
          "160243.421000",
          "160243.421000",
          "160243.421000",
          "160243.421000",
          "160243.421000",
          "160243.437000",
          "160243.437000",
          "160323.390000",
          "160323.390000",
          "160323.390000",
          "160323.406000",
          "160323.406000",
          "160323.406000",
          "160323.406000",
          "160323.406000",
          "160323.406000",
          "160323.406000",
          "160323.421000",
          "160323.421000",
          "160323.421000",
          "160323.421000",
          "160323.421000",
          "160323.421000",
          "160323.421000",
          "160323.421000",
          "160323.437000",
          "160323.437000",
          "160400.984000",
          "160400.984000",
          "160401.000000",
          "160401.000000",
          "160401.000000",
          "160401.000000",
          "160401.000000",
          "160401.000000",
          "160401.000000",
          "160401.015000",
          "160401.015000",
          "160401.015000",
          "160401.015000",
          "160401.015000",
          "160401.015000",
          "160401.015000",
          "160401.031000",
          "160401.031000",
          "160401.031000"
        ],
        "InstanceCreationTime": [
          "155623.390000",
          "155623.406000",
          "155623.406000",
          "155623.406000",
          "155623.406000",
          "155623.406000",
          "155623.406000",
          "155623.406000",
          "155623.421000",
          "155623.421000",
          "155623.421000",
          "155623.421000",
          "155623.421000",
          "155623.421000",
          "155623.437000",
          "155623.437000",
          "155623.437000",
          "155623.437000",
          "155623.437000",
          "155623.437000",
          "155623.437000",
          "155623.437000",
          "155623.453000",
          "155623.453000",
          "155623.453000",
          "155623.453000",
          "155623.453000",
          "155623.453000",
          "155623.453000",
          "155703.390000",
          "155703.390000",
          "155703.390000",
          "155703.406000",
          "155703.406000",
          "155703.406000",
          "155703.406000",
          "155703.406000",
          "155703.406000",
          "155703.406000",
          "155703.421000",
          "155703.421000",
          "155703.421000",
          "155703.421000",
          "155703.421000",
          "155703.421000",
          "155703.421000",
          "155703.437000",
          "155703.437000",
          "155703.437000",
          "155743.390000",
          "155743.390000",
          "155743.390000",
          "155743.406000",
          "155743.406000",
          "155743.406000",
          "155743.406000",
          "155743.406000",
          "155743.421000",
          "155743.421000",
          "155743.421000",
          "155743.421000",
          "155743.421000",
          "155743.421000",
          "155743.421000",
          "155743.421000",
          "155743.437000",
          "155743.437000",
          "155743.437000",
          "155743.437000",
          "155823.390000",
          "155823.390000",
          "155823.390000",
          "155823.406000",
          "155823.406000",
          "155823.406000",
          "155823.406000",
          "155823.406000",
          "155823.406000",
          "155823.421000",
          "155823.421000",
          "155823.421000",
          "155823.421000",
          "155823.421000",
          "155823.421000",
          "155823.421000",
          "155823.437000",
          "155823.437000",
          "155823.437000",
          "155823.437000",
          "155903.390000",
          "155903.390000",
          "155903.390000",
          "155903.406000",
          "155903.406000",
          "155903.406000",
          "155903.406000",
          "155903.406000",
          "155903.406000",
          "155903.406000",
          "155903.421000",
          "155903.421000",
          "155903.421000",
          "155903.421000",
          "155903.421000",
          "155903.421000",
          "155903.421000",
          "155903.421000",
          "155903.437000",
          "155903.437000",
          "155943.390000",
          "155943.390000",
          "155943.390000",
          "155943.406000",
          "155943.421000",
          "155943.421000",
          "155943.421000",
          "155943.421000",
          "155943.421000",
          "155943.421000",
          "155943.421000",
          "155943.421000",
          "155943.437000",
          "155943.437000",
          "155943.437000",
          "155943.437000",
          "155943.437000",
          "155943.437000",
          "155943.437000",
          "155943.453000",
          "160023.390000",
          "160023.390000",
          "160023.390000",
          "160023.406000",
          "160023.406000",
          "160023.406000",
          "160023.406000",
          "160023.406000",
          "160023.406000",
          "160023.406000",
          "160023.406000",
          "160023.421000",
          "160023.421000",
          "160023.421000",
          "160023.421000",
          "160023.421000",
          "160023.421000",
          "160023.421000",
          "160023.437000",
          "160023.437000",
          "160103.390000",
          "160103.390000",
          "160103.390000",
          "160103.406000",
          "160103.406000",
          "160103.406000",
          "160103.406000",
          "160103.406000",
          "160103.406000",
          "160103.406000",
          "160103.421000",
          "160103.421000",
          "160103.421000",
          "160103.421000",
          "160103.421000",
          "160103.421000",
          "160103.421000",
          "160103.437000",
          "160103.437000",
          "160103.437000",
          "160143.390000",
          "160143.390000",
          "160143.390000",
          "160143.406000",
          "160143.406000",
          "160143.406000",
          "160143.406000",
          "160143.406000",
          "160143.406000",
          "160143.406000",
          "160143.421000",
          "160143.421000",
          "160143.421000",
          "160143.421000",
          "160143.421000",
          "160143.421000",
          "160143.421000",
          "160143.437000",
          "160143.437000",
          "160143.437000",
          "160203.390000",
          "160203.390000",
          "160203.390000",
          "160203.406000",
          "160203.406000",
          "160203.406000",
          "160203.406000",
          "160203.406000",
          "160203.406000",
          "160203.406000",
          "160243.390000",
          "160243.390000",
          "160243.390000",
          "160243.406000",
          "160243.406000",
          "160243.406000",
          "160243.406000",
          "160243.406000",
          "160243.406000",
          "160243.406000",
          "160243.421000",
          "160243.421000",
          "160243.421000",
          "160243.421000",
          "160243.421000",
          "160243.421000",
          "160243.421000",
          "160243.421000",
          "160243.437000",
