{
  "aor": 0.0019243798449612407,
  "aqi": 0.014437946279069766,
  "bids_meta": {
    "AcquisitionMatrixPE": 68,
    "AcquisitionNumber": 1,
    "AcquisitionTime": "16:14:59.325000",
    "BandwidthPerPixelPhaseEncode": 31.289,
    "BaseResolution": 68,
    "CogAtlasID": "TODO",
    "CoilString": "C:HEA;HEP",
    "ConversionSoftware": "dcm2niix",
    "ConversionSoftwareVersion": "v1.0.20190902",
    "DerivedVendorReportedEchoSpacing": 0.000470002,
    "DeviceSerialNumber": "35450",
    "DwellTime": 3e-06,
    "EchoTime": 0.023,
    "EffectiveEchoSpacing": 0.000470002,
    "FlipAngle": 76,
    "ImageOrientationPatientDICOM": [
      0.999816,
      0.00237287,
      0.0190502,
      -4.19453e-08,
      0.992332,
      -0.123601
    ],
    "ImageType": [
      "ORIGINAL",
      "PRIMARY",
      "M",
      "ND",
      "MOSAIC"
    ],
    "ImagingFrequency": 123.219,
    "InPlanePhaseEncodingDirectionDICOM": "COL",
    "InstitutionAddress": "Univeristy_Ave._197_Newark_North_East_US_07102-1814",
    "InstitutionName": "RUBIC",
    "InstitutionalDepartmentName": "Department",
    "MRAcquisitionType": "2D",
    "MagneticFieldStrength": 3,
    "Manufacturer": "Siemens",
    "ManufacturersModelName": "TrioTim",
    "Modality": "MR",
    "PartialFourier": 1,
    "PatientPosition": "HFS",
    "PercentPhaseFOV": 100,
    "PhaseEncodingDirection": "j-",
    "PhaseEncodingSteps": 68,
    "PhaseResolution": 1,
    "PixelBandwidth": 2451,
    "ProcedureStepDescription": "Krekelberg_David",
    "ProtocolName": "ep2d_bold_CardGameEPI_2",
    "PulseSequenceDetails": "%SiemensSeq%_ep2d_bold",
    "ReceiveCoilName": "HeadMatrix",
    "ReconMatrixPE": 68,
    "RepetitionTime": 2,
    "SAR": 0.166162,
    "ScanOptions": "FS",
    "ScanningSequence": "EP",
    "SequenceName": "_epfid2d1_68",
    "SequenceVariant": "SK",
    "SeriesDescription": "ep2d_bold_CardGameEPI_2",
    "SeriesNumber": 8,
    "ShimSetting": [
      1977,
      -686,
      -7539,
      795,
      203,
      -32,
      -80,
      -88
    ],
    "SliceThickness": 2.5,
    "SliceTiming": [
      1.95,
      1.895,
      1.84,
      1.785,
      1.7275,
      1.6725,
      1.6175,
      1.56,
      1.505,
      1.45,
      1.3925,
      1.3375,
      1.2825,
      1.225,
      1.17,
      1.115,
      1.06,
      1.0025,
      0.9475,
      0.8925,
      0.835,
      0.78,
      0.725,
      0.6675,
      0.6125,
      0.5575,
      0.5025,
      0.445,
      0.39,
      0.335,
      0.2775,
      0.2225,
      0.1675,
      0.11,
      0.055,
      0
    ],
    "SoftwareVersions": "syngo_MR_B19",
    "SpacingBetweenSlices": 3,
    "StationName": "MRC35450",
    "TaskName": "cardgame",
    "TotalReadoutTime": 0.0314901,
    "TxRefAmp": 342.309,
    "dataset": "<unset>",
    "dcmmeta_affine": [
      [
        -2.9994471073150635,
        -1.258358679478988e-07,
        0.05759233981370926,
        98.261474609375
      ],
      [
        -0.007118623703718185,
        2.9769957065582275,
        -0.37073609232902527,
        -73.89026641845703
      ],
      [
        0.0571507066488266,
        0.37080442905426025,
        2.976447105407715,
        -40.505184173583984
      ],
      [
        0.0,
        0.0,
        0.0,
        1.0
      ]
    ],
    "dcmmeta_reorient_transform": [
      [
        0.0,
        -1.0,
        0.0,
        67.0
      ],
      [
        1.0,
        0.0,
        0.0,
        0.0
      ],
      [
        0.0,
        0.0,
        1.0,
        0.0
      ],
      [
        0.0,
        0.0,
        0.0,
        1.0
      ]
    ],
    "dcmmeta_shape": [
      68,
      68,
      36,
      258
    ],
    "dcmmeta_slice_dim": 2,
    "dcmmeta_version": 0.6,
    "global": {
      "const": {
        "AcquisitionMatrix": [
          68,
          0,
          0,
          68
        ],
        "AngioFlag": "N",
        "BitsAllocated": 16,
        "BitsStored": 12,
        "Columns": 408,
        "EchoNumbers": 1,
        "EchoTime": 23.0,
        "EchoTrainLength": 1,
        "FlipAngle": 76.0,
        "HighBit": 11,
        "ImageOrientationPatient": [
          0.99981571201944,
          0.00237287453708,
          0.01905023531357,
          -4.194529e-08,
          0.99233193767192,
          -0.1236014784551
        ],
        "ImagePositionPatient": [
          -608.1674599466,
          -632.86790944874,
          37.659848870259
        ],
        "ImageType": [
          "ORIGINAL",
          "PRIMARY",
          "M",
          "ND",
          "MOSAIC"
        ],
        "ImagedNucleus": "1H",
        "ImagingFrequency": 123.21851,
        "InPlanePhaseEncodingDirection": "COL",
        "MRAcquisitionType": "2D",
        "MagneticFieldStrength": 3.0,
        "Manufacturer": "SIEMENS",
        "ManufacturerModelName": "TrioTim",
        "Modality": "MR",
        "NumberOfAverages": 1.0,
        "NumberOfPhaseEncodingSteps": 68,
        "PercentPhaseFieldOfView": 100.0,
        "PercentSampling": 100.0,
        "PerformedProcedureStepStartTime": "153524.312000",
        "PhotometricInterpretation": "MONOCHROME2",
        "PixelBandwidth": 2451.0,
        "PixelRepresentation": 0,
        "PixelSpacing": [
          3.0,
          3.0
        ],
        "ProtocolName": "ep2d_bold_CardGameEPI_2",
        "RepetitionTime": 2000.0,
        "Rows": 408,
        "SAR": 0.16616233630214,
        "SamplesPerPixel": 1,
        "ScanOptions": "FS",
        "ScanningSequence": "EP",
        "SequenceName": "*epfid2d1_68",
        "SequenceVariant": "SK",
        "SeriesDescription": "ep2d_bold_CardGameEPI_2",
        "SeriesNumber": 8,
        "SeriesTime": "161541.109000",
        "SliceLocation": -29.169546349373,
        "SliceThickness": 2.5,
        "SmallestImagePixelValue": 0,
        "SoftwareVersions": "syngo MR B19",
        "SpacingBetweenSlices": 2.9999998894837,
        "SpecificCharacterSet": "ISO_IR 100",
        "StudyID": "1",
        "StudyTime": "153524.250000",
        "TransmitCoilName": "Body",
        "VariableFlipAngleFlag": "N",
        "WindowCenterWidthExplanation": "Algo1",
        "dBdt": 0.0
      },
      "slices": {}
    },
    "modality": "bold",
    "run_id": 2,
    "subject_id": "219",
    "task_id": "cardgame",
    "time": {
      "samples": {
        "AcquisitionNumber": [
          1,
          2,
          3,
          4,
          5,
          6,
          7,
          8,
          9,
          10,
          11,
          12,
          13,
          14,
          15,
          16,
          17,
          18,
          19,
          20,
          21,
          22,
          23,
          24,
          25,
          26,
          27,
          28,
          29,
          30,
          31,
          32,
          33,
          34,
          35,
          36,
          37,
          38,
          39,
          40,
          41,
          42,
          43,
          44,
          45,
          46,
          47,
          48,
          49,
          50,
          51,
          52,
          53,
          54,
          55,
          56,
          57,
          58,
          59,
          60,
          61,
          62,
          63,
          64,
          65,
          66,
          67,
          68,
          69,
          70,
          71,
          72,
          73,
          74,
          75,
          76,
          77,
          78,
          79,
          80,
          81,
          82,
          83,
          84,
          85,
          86,
          87,
          88,
          89,
          90,
          91,
          92,
          93,
          94,
          95,
          96,
          97,
          98,
          99,
          100,
          101,
          102,
          103,
          104,
          105,
          106,
          107,
          108,
          109,
          110,
          111,
          112,
          113,
          114,
          115,
          116,
          117,
          118,
          119,
          120,
          121,
          122,
          123,
          124,
          125,
          126,
          127,
          128,
          129,
          130,
          131,
          132,
          133,
          134,
          135,
          136,
          137,
          138,
          139,
          140,
          141,
          142,
          143,
          144,
          145,
          146,
          147,
          148,
          149,
          150,
          151,
          152,
          153,
          154,
          155,
          156,
          157,
          158,
          159,
          160,
          161,
          162,
          163,
          164,
          165,
          166,
          167,
          168,
          169,
          170,
          171,
          172,
          173,
          174,
          175,
          176,
          177,
          178,
          179,
          180,
          181,
          182,
          183,
          184,
          185,
          186,
          187,
          188,
          189,
          190,
          191,
          192,
          193,
          194,
          195,
          196,
          197,
          198,
          199,
          200,
          201,
          202,
          203,
          204,
          205,
          206,
          207,
          208,
          209,
          210,
          211,
          212,
          213,
          214,
          215,
          216,
          217,
          218,
          219,
          220,
          221,
          222,
          223,
          224,
          225,
          226,
          227,
          228,
          229,
          230,
          231,
          232,
          233,
          234,
          235,
          236,
          237,
          238,
          239,
          240,
          241,
          242,
          243,
          244,
          245,
          246,
          247,
          248,
          249,
          250,
          251,
          252,
          253,
          254,
          255,
          256,
          257,
          258
        ],
        "AcquisitionTime": [
          "161459.325000",
          "161501.335000",
          "161503.342500",
          "161505.350000",
          "161507.357500",
          "161509.367500",
          "161511.375000",
          "161513.382500",
          "161515.390000",
          "161517.397500",
          "161519.407500",
          "161521.415000",
          "161523.422500",
          "161525.430000",
          "161527.437500",
          "161529.447500",
          "161531.455000",
          "161533.462500",
          "161535.470000",
          "161537.480000",
          "161539.487500",
          "161541.495000",
          "161543.502500",
          "161545.510000",
          "161547.520000",
          "161549.527500",
          "161551.535000",
          "161553.542500",
          "161555.550000",
          "161557.560000",
          "161559.567500",
          "161601.575000",
          "161603.582500",
          "161605.590000",
          "161607.600000",
          "161609.607500",
          "161611.615000",
          "161613.622500",
          "161615.632500",
          "161617.640000",
          "161619.647500",
          "161621.655000",
          "161623.662500",
          "161625.672500",
          "161627.680000",
          "161629.687500",
          "161631.695000",
          "161633.702500",
          "161635.712500",
          "161637.720000",
          "161639.727500",
          "161641.735000",
          "161643.745000",
          "161645.752500",
          "161647.760000",
          "161649.767500",
          "161651.775000",
          "161653.785000",
          "161655.792500",
          "161657.800000",
          "161659.807500",
          "161701.815000",
          "161703.825000",
          "161705.832500",
          "161707.840000",
          "161709.847500",
          "161711.857500",
          "161713.865000",
          "161715.872500",
          "161717.880000",
          "161719.887500",
          "161721.897500",
          "161723.905000",
          "161725.912500",
          "161727.920000",
          "161729.927500",
          "161731.937500",
          "161733.945000",
          "161735.952500",
          "161737.960000",
          "161739.967500",
          "161741.977500",
          "161743.985000",
          "161745.992500",
          "161748.000000",
          "161750.010000",
          "161752.017500",
          "161754.025000",
          "161756.032500",
          "161758.040000",
          "161800.050000",
          "161802.057500",
          "161804.065000",
          "161806.072500",
          "161808.080000",
          "161810.090000",
          "161812.097500",
          "161814.105000",
          "161816.112500",
          "161818.122500",
          "161820.130000",
          "161822.137500",
          "161824.145000",
          "161826.152500",
          "161828.162500",
          "161830.170000",
          "161832.177500",
          "161834.185000",
          "161836.192500",
          "161838.202500",
          "161840.210000",
          "161842.217500",
          "161844.225000",
          "161846.235000",
          "161848.242500",
          "161850.250000",
          "161852.257500",
          "161854.265000",
          "161856.275000",
          "161858.282500",
          "161900.290000",
          "161902.297500",
          "161904.305000",
          "161906.315000",
          "161908.322500",
          "161910.330000",
          "161912.337500",
          "161914.345000",
          "161916.355000",
          "161918.362500",
          "161920.370000",
          "161922.377500",
          "161924.387500",
          "161926.395000",
          "161928.402500",
          "161930.410000",
          "161932.417500",
          "161934.427500",
          "161936.435000",
          "161938.442500",
          "161940.450000",
          "161942.457500",
          "161944.467500",
          "161946.475000",
          "161948.482500",
          "161950.490000",
          "161952.500000",
          "161954.507500",
          "161956.515000",
          "161958.522500",
          "162000.530000",
          "162002.540000",
          "162004.547500",
          "162006.555000",
          "162008.562500",
          "162010.570000",
          "162012.580000",
          "162014.587500",
          "162016.595000",
          "162018.602500",
          "162020.612500",
          "162022.620000",
          "162024.627500",
          "162026.635000",
          "162028.642500",
          "162030.652500",
          "162032.660000",
          "162034.667500",
          "162036.675000",
          "162038.682500",
          "162040.692500",
          "162042.700000",
          "162044.707500",
          "162046.715000",
          "162048.722500",
          "162050.732500",
          "162052.740000",
          "162054.747500",
          "162056.755000",
          "162058.765000",
          "162100.772500",
          "162102.780000",
          "162104.787500",
          "162106.795000",
          "162108.805000",
          "162110.812500",
          "162112.820000",
          "162114.827500",
          "162116.835000",
          "162118.845000",
          "162120.852500",
          "162122.860000",
          "162124.867500",
          "162126.877500",
          "162128.885000",
          "162130.892500",
          "162132.900000",
          "162134.907500",
          "162136.917500",
          "162138.925000",
          "162140.932500",
          "162142.940000",
          "162144.947500",
          "162146.957500",
          "162148.965000",
          "162150.972500",
          "162152.980000",
          "162154.990000",
          "162156.997500",
          "162159.005000",
          "162201.012500",
          "162203.020000",
          "162205.030000",
          "162207.037500",
          "162209.045000",
          "162211.052500",
          "162213.060000",
          "162215.070000",
          "162217.077500",
          "162219.085000",
          "162221.092500",
          "162223.102500",
          "162225.110000",
          "162227.117500",
          "162229.125000",
          "162231.132500",
          "162233.142500",
          "162235.150000",
          "162237.157500",
          "162239.165000",
          "162241.172500",
          "162243.182500",
          "162245.190000",
          "162247.197500",
          "162249.205000",
          "162251.212500",
          "162253.222500",
          "162255.230000",
          "162257.237500",
          "162259.245000",
          "162301.255000",
          "162303.262500",
          "162305.270000",
          "162307.277500",
          "162309.285000",
          "162311.295000",
          "162313.302500",
          "162315.310000",
          "162317.317500",
          "162319.325000",
          "162321.335000",
          "162323.342500",
          "162325.350000",
          "162327.357500",
          "162329.367500",
          "162331.375000",
          "162333.382500",
          "162335.390000"
        ],
        "ContentTime": [
          "161541.109000",
          "161541.125000",
          "161541.125000",
          "161541.125000",
          "161541.125000",
          "161541.125000",
          "161541.125000",
          "161541.125000",
          "161541.140000",
          "161541.140000",
          "161541.140000",
          "161541.140000",
          "161541.140000",
          "161541.140000",
          "161541.140000",
          "161541.140000",
          "161541.156000",
          "161541.156000",
          "161541.156000",
          "161541.156000",
          "161541.156000",
          "161621.109000",
          "161621.109000",
          "161621.109000",
          "161621.125000",
          "161621.125000",
          "161621.125000",
          "161621.125000",
          "161621.125000",
          "161621.125000",
          "161621.125000",
          "161621.140000",
          "161621.140000",
          "161621.140000",
          "161621.140000",
          "161621.140000",
          "161621.140000",
          "161621.140000",
          "161621.140000",
          "161621.156000",
          "161621.156000",
          "161701.109000",
          "161701.109000",
          "161701.109000",
          "161701.125000",
          "161701.125000",
          "161701.125000",
          "161701.125000",
          "161701.125000",
          "161701.125000",
          "161701.125000",
          "161701.140000",
          "161701.140000",
          "161701.140000",
          "161701.140000",
          "161701.140000",
          "161701.140000",
          "161701.140000",
          "161701.140000",
          "161701.156000",
          "161701.156000",
          "161741.109000",
          "161741.109000",
          "161741.109000",
          "161741.125000",
          "161741.125000",
          "161741.125000",
          "161741.125000",
          "161741.125000",
          "161741.125000",
          "161741.125000",
          "161741.125000",
          "161741.140000",
          "161741.140000",
          "161741.140000",
          "161741.140000",
          "161741.140000",
          "161741.140000",
          "161741.140000",
          "161741.156000",
          "161741.156000",
          "161821.109000",
          "161821.109000",
          "161821.109000",
          "161821.125000",
          "161821.125000",
          "161821.125000",
          "161821.125000",
          "161821.125000",
          "161821.125000",
          "161821.125000",
          "161821.140000",
          "161821.140000",
          "161821.140000",
          "161821.140000",
          "161821.140000",
          "161821.140000",
          "161821.140000",
          "161821.140000",
          "161821.156000",
          "161821.156000",
          "161901.109000",
          "161901.109000",
          "161901.109000",
          "161901.125000",
          "161901.125000",
          "161901.125000",
          "161901.125000",
          "161901.125000",
          "161901.125000",
          "161901.125000",
          "161901.140000",
          "161901.140000",
          "161901.140000",
          "161901.140000",
          "161901.140000",
          "161901.140000",
          "161901.140000",
          "161901.140000",
          "161901.156000",
          "161901.156000",
          "161941.109000",
          "161941.109000",
          "161941.109000",
          "161941.125000",
          "161941.125000",
          "161941.125000",
          "161941.125000",
          "161941.125000",
          "161941.125000",
          "161941.125000",
          "161941.140000",
          "161941.140000",
          "161941.140000",
          "161941.140000",
          "161941.140000",
          "161941.140000",
          "161941.140000",
          "161941.140000",
          "161941.156000",
          "161941.156000",
          "162021.109000",
          "162021.109000",
          "162021.125000",
          "162021.125000",
          "162021.125000",
          "162021.125000",
          "162021.125000",
          "162021.125000",
          "162021.125000",
          "162021.125000",
          "162021.140000",
          "162021.140000",
          "162021.140000",
          "162021.140000",
          "162021.140000",
          "162021.140000",
          "162021.140000",
          "162021.156000",
          "162021.156000",
          "162021.156000",
          "162101.109000",
          "162101.109000",
          "162101.125000",
          "162101.125000",
          "162101.125000",
          "162101.125000",
          "162101.125000",
          "162101.125000",
          "162101.125000",
          "162101.125000",
          "162101.140000",
          "162101.140000",
          "162101.140000",
          "162101.140000",
          "162101.140000",
          "162101.140000",
          "162101.140000",
          "162101.140000",
          "162101.156000",
          "162101.156000",
          "162141.109000",
          "162141.109000",
          "162141.109000",
          "162141.125000",
          "162141.125000",
          "162141.125000",
          "162141.125000",
          "162141.125000",
          "162141.125000",
          "162141.125000",
          "162141.140000",
          "162141.140000",
          "162141.140000",
          "162141.140000",
          "162141.140000",
          "162141.140000",
          "162141.140000",
          "162141.140000",
          "162141.156000",
          "162141.156000",
          "162201.109000",
          "162201.109000",
          "162201.125000",
          "162201.125000",
          "162201.125000",
          "162201.125000",
          "162201.125000",
          "162201.125000",
          "162201.125000",
          "162201.125000",
          "162241.109000",
          "162241.109000",
          "162241.109000",
          "162241.125000",
          "162241.125000",
          "162241.125000",
          "162241.125000",
          "162241.125000",
          "162241.125000",
          "162241.125000",
          "162241.140000",
          "162241.140000",
          "162241.140000",
          "162241.140000",
          "162241.140000",
          "162241.140000",
          "162241.140000",
          "162241.140000",
          "162241.156000",
          "162241.156000",
          "162321.109000",
          "162321.109000",
          "162321.109000",
          "162321.125000",
          "162321.125000",
          "162321.125000",
          "162321.125000",
          "162321.125000",
          "162321.125000",
          "162321.125000",
          "162321.140000",
          "162321.140000",
          "162321.140000",
          "162321.140000",
          "162321.140000",
          "162321.140000",
          "162321.140000",
          "162321.140000",
          "162321.156000",
          "162321.156000",
          "162333.953000",
          "162333.953000",
          "162333.953000",
          "162333.968000",
          "162333.968000",
          "162333.968000",
          "162333.968000"
        ],
        "InstanceCreationTime": [
          "161541.109000",
          "161541.125000",
          "161541.125000",
          "161541.125000",
          "161541.125000",
          "161541.125000",
          "161541.125000",
          "161541.125000",
          "161541.140000",
          "161541.140000",
          "161541.140000",
          "161541.140000",
          "161541.140000",
          "161541.140000",
          "161541.140000",
          "161541.140000",
          "161541.156000",
          "161541.156000",
          "161541.156000",
          "161541.156000",
          "161541.156000",
          "161621.109000",
          "161621.109000",
          "161621.109000",
          "161621.125000",
          "161621.125000",
          "161621.125000",
          "161621.125000",
          "161621.125000",
          "161621.125000",
          "161621.125000",
          "161621.140000",
          "161621.140000",
          "161621.140000",
          "161621.140000",
          "161621.140000",
          "161621.140000",
          "161621.140000",
          "161621.140000",
          "161621.156000",
          "161621.156000",
          "161701.109000",
          "161701.109000",
          "161701.109000",
          "161701.125000",
          "161701.125000",
          "161701.125000",
          "161701.125000",
          "161701.125000",
          "161701.125000",
          "161701.125000",
          "161701.140000",
          "161701.140000",
          "161701.140000",
          "161701.140000",
          "161701.140000",
          "161701.140000",
          "161701.140000",
          "161701.140000",
          "161701.156000",
          "161701.156000",
          "161741.109000",
          "161741.109000",
          "161741.109000",
          "161741.125000",
          "161741.125000",
          "161741.125000",
          "161741.125000",
          "161741.125000",
          "161741.125000",
          "161741.125000",
          "161741.125000",
          "161741.140000",
          "161741.140000",
          "161741.140000",
          "161741.140000",
          "161741.140000",
          "161741.140000",
          "161741.140000",
          "161741.156000",
          "161741.156000",
          "161821.109000",
          "161821.109000",
          "161821.109000",
          "161821.125000",
          "161821.125000",
          "161821.125000",
          "161821.125000",
          "161821.125000",
          "161821.125000",
          "161821.125000",
          "161821.140000",
          "161821.140000",
          "161821.140000",
          "161821.140000",
          "161821.140000",
          "161821.140000",
          "161821.140000",
          "161821.140000",
          "161821.156000",
          "161821.156000",
          "161901.109000",
          "161901.109000",
          "161901.109000",
          "161901.125000",
          "161901.125000",
          "161901.125000",
          "161901.125000",
          "161901.125000",
          "161901.125000",
          "161901.125000",
          "161901.140000",
          "161901.140000",
          "161901.140000",
          "161901.140000",
          "161901.140000",
          "161901.140000",
          "161901.140000",
          "161901.140000",
          "161901.156000",
          "161901.156000",
          "161941.109000",
          "161941.109000",
          "161941.109000",
          "161941.125000",
          "161941.125000",
          "161941.125000",
          "161941.125000",
          "161941.125000",
          "161941.125000",
          "161941.125000",
          "161941.140000",
          "161941.140000",
          "161941.140000",
          "161941.140000",
          "161941.140000",
          "161941.140000",
          "161941.140000",
          "161941.140000",
          "161941.156000",
          "161941.156000",
          "162021.109000",
          "162021.109000",
          "162021.125000",
          "162021.125000",
          "162021.125000",
          "162021.125000",
          "162021.125000",
          "162021.125000",
          "162021.125000",
          "162021.125000",
          "162021.140000",
          "162021.140000",
          "162021.140000",
          "162021.140000",
          "162021.140000",
          "162021.140000",
          "162021.140000",
          "162021.156000",
          "162021.156000",
          "162021.156000",
          "162101.109000",
          "162101.109000",
          "162101.125000",
          "162101.125000",
          "162101.125000",
          "162101.125000",
          "162101.125000",
          "162101.125000",
          "162101.125000",
          "162101.125000",
          "162101.140000",
          "162101.140000",
          "162101.140000",
          "162101.140000",
          "162101.140000",
          "162101.140000",
          "162101.140000",
          "162101.140000",
          "162101.156000",
          "162101.156000",
          "162141.109000",
          "162141.109000",
          "162141.109000",
          "162141.125000",
          "162141.125000",
          "162141.125000",
          "162141.125000",
          "162141.125000",
          "162141.125000",
          "162141.125000",
          "162141.140000",
          "162141.140000",
          "162141.140000",
          "162141.140000",
          "162141.140000",
          "162141.140000",
          "162141.140000",
          "162141.140000",
          "162141.156000",
          "162141.156000",
          "162201.109000",
          "162201.109000",
          "162201.125000",
          "162201.125000",
          "162201.125000",
          "162201.125000",
          "162201.125000",
          "162201.125000",
          "162201.125000",
          "162201.125000",
          "162241.109000",
          "162241.109000",
          "162241.109000",
          "162241.125000",
          "162241.125000",
          "162241.125000",
          "162241.125000",
