{
  "aor": 0.0008288715953307393,
  "aqi": 0.011995983579766535,
  "bids_meta": {
    "AcquisitionMatrixPE": 68,
    "AcquisitionNumber": 1,
    "AcquisitionTime": "11:45:42.532500",
    "BandwidthPerPixelPhaseEncode": 31.289,
    "BaseResolution": 68,
    "CogAtlasID": "TODO",
    "CoilString": "C:HEA;HEP",
    "ConversionSoftware": "dcm2niix",
    "ConversionSoftwareVersion": "v1.0.20190902",
    "DerivedVendorReportedEchoSpacing": 0.000470002,
    "DeviceSerialNumber": "35450",
    "DwellTime": 3e-06,
    "EchoTime": 0.023,
    "EffectiveEchoSpacing": 0.000470002,
    "FlipAngle": 76,
    "ImageOrientationPatientDICOM": [
      0.999657,
      0.00314478,
      0.0259874,
      3.2883e-08,
      0.992757,
      -0.120137
    ],
    "ImageType": [
      "ORIGINAL",
      "PRIMARY",
      "M",
      "ND",
      "MOSAIC"
    ],
    "ImagingFrequency": 123.218,
    "InPlanePhaseEncodingDirectionDICOM": "COL",
    "InstitutionAddress": "Univeristy_Ave._197_Newark_North_East_US_07102-1814",
    "InstitutionName": "RUBIC",
    "InstitutionalDepartmentName": "Department",
    "MRAcquisitionType": "2D",
    "MagneticFieldStrength": 3,
    "Manufacturer": "Siemens",
    "ManufacturersModelName": "TrioTim",
    "Modality": "MR",
    "PartialFourier": 1,
    "PatientPosition": "HFS",
    "PercentPhaseFOV": 100,
    "PhaseEncodingDirection": "j-",
    "PhaseEncodingSteps": 68,
    "PhaseResolution": 1,
    "PixelBandwidth": 2451,
    "ProcedureStepDescription": "Krekelberg_David",
    "ProtocolName": "ep2d_bold_CardGameEPI_1",
    "PulseSequenceDetails": "%SiemensSeq%_ep2d_bold",
    "ReceiveCoilName": "HeadMatrix",
    "ReconMatrixPE": 68,
    "RepetitionTime": 2,
    "SAR": 0.190781,
    "ScanOptions": "FS",
    "ScanningSequence": "EP",
    "SequenceName": "_epfid2d1_68",
    "SequenceVariant": "SK",
    "SeriesDescription": "ep2d_bold_CardGameEPI_1",
    "SeriesNumber": 5,
    "ShimSetting": [
      1964,
      -641,
      -7571,
      669,
      57,
      15,
      77,
      -203
    ],
    "SliceThickness": 2.5,
    "SliceTiming": [
      1.9525,
      1.8975,
      1.84,
      1.785,
      1.73,
      1.6725,
      1.6175,
      1.5625,
      1.505,
      1.45,
      1.395,
      1.3375,
      1.2825,
      1.2275,
      1.1725,
      1.115,
      1.06,
      1.005,
      0.9475,
      0.8925,
      0.8375,
      0.78,
      0.725,
      0.67,
      0.6125,
      0.5575,
      0.5025,
      0.4475,
      0.39,
      0.335,
      0.28,
      0.2225,
      0.1675,
      0.1125,
      0.055,
      0
    ],
    "SoftwareVersions": "syngo_MR_B19",
    "SpacingBetweenSlices": 3,
    "StationName": "MRC35450",
    "TaskName": "cardgame",
    "TotalReadoutTime": 0.0314901,
    "TxRefAmp": 354.672,
    "dataset": "<unset>",
    "dcmmeta_affine": [
      [
        -2.998971939086914,
        9.864903205425435e-08,
        0.07853084057569504,
        97.87889099121094
      ],
      [
        -0.009434349834918976,
        2.978271961212158,
        -0.36028704047203064,
        -68.6148681640625
      ],
      [
        0.07796207815408707,
        0.36041054129600525,
        2.9772515296936035,
        -63.93480682373047
      ],
      [
        0.0,
        0.0,
        0.0,
        1.0
      ]
    ],
    "dcmmeta_reorient_transform": [
      [
        0.0,
        -1.0,
        0.0,
        67.0
      ],
      [
        1.0,
        0.0,
        0.0,
        0.0
      ],
      [
        0.0,
        0.0,
        1.0,
        0.0
      ],
      [
        0.0,
        0.0,
        0.0,
        1.0
      ]
    ],
    "dcmmeta_shape": [
      68,
      68,
      36,
      258
    ],
    "dcmmeta_slice_dim": 2,
    "dcmmeta_version": 0.6,
    "global": {
      "const": {
        "AcquisitionMatrix": [
          68,
          0,
          0,
          68
        ],
        "AngioFlag": "N",
        "BitsAllocated": 16,
        "BitsStored": 12,
        "Columns": 408,
        "EchoNumbers": 1,
        "EchoTime": 23.0,
        "EchoTrainLength": 1,
        "FlipAngle": 76.0,
        "HighBit": 11,
        "ImageOrientationPatient": [
          0.99965732500203,
          0.00314478323318,
          0.02598736054692,
          3.2883011e-08,
          0.99275734115154,
          -0.1201368452629
        ],
        "ImagePositionPatient": [
          -607.70414856474,
          -638.83943975358,
          8.2289359401263
        ],
        "ImageType": [
          "ORIGINAL",
          "PRIMARY",
          "M",
          "ND",
          "MOSAIC"
        ],
        "ImagedNucleus": "1H",
        "ImagingFrequency": 123.218453,
        "InPlanePhaseEncodingDirection": "COL",
        "MRAcquisitionType": "2D",
        "MagneticFieldStrength": 3.0,
        "Manufacturer": "SIEMENS",
        "ManufacturerModelName": "TrioTim",
        "Modality": "MR",
        "NumberOfAverages": 1.0,
        "NumberOfPhaseEncodingSteps": 68,
        "PercentPhaseFieldOfView": 100.0,
        "PercentSampling": 100.0,
        "PerformedProcedureStepStartTime": "113054.359000",
        "PhotometricInterpretation": "MONOCHROME2",
        "PixelBandwidth": 2451.0,
        "PixelRepresentation": 0,
        "PixelSpacing": [
          3.0,
          3.0
        ],
        "ProtocolName": "ep2d_bold_CardGameEPI_1",
        "RepetitionTime": 2000.0,
        "Rows": 408,
        "SAR": 0.19078133617109,
        "SamplesPerPixel": 1,
        "ScanOptions": "FS",
        "ScanningSequence": "EP",
        "SequenceName": "*epfid2d1_68",
        "SequenceVariant": "SK",
        "SeriesDescription": "ep2d_bold_CardGameEPI_1",
        "SeriesNumber": 5,
        "SeriesTime": "114639.281000",
        "SliceLocation": -52.647479188402,
        "SliceThickness": 2.5,
        "SmallestImagePixelValue": 0,
        "SoftwareVersions": "syngo MR B19",
        "SpacingBetweenSlices": 2.9999999914125,
        "SpecificCharacterSet": "ISO_IR 100",
        "StudyID": "1",
        "StudyTime": "113054.312000",
        "TransmitCoilName": "Body",
        "VariableFlipAngleFlag": "N",
        "WindowCenterWidthExplanation": "Algo1",
        "dBdt": 0.0
      },
      "slices": {}
    },
    "modality": "bold",
    "run_id": 1,
    "subject_id": "226",
    "task_id": "cardgame",
    "time": {
      "samples": {
        "AcquisitionNumber": [
          1,
          2,
          3,
          4,
          5,
          6,
          7,
          8,
          9,
          10,
          11,
          12,
          13,
          14,
          15,
          16,
          17,
          18,
          19,
          20,
          21,
          22,
          23,
          24,
          25,
          26,
          27,
          28,
          29,
          30,
          31,
          32,
          33,
          34,
          35,
          36,
          37,
          38,
          39,
          40,
          41,
          42,
          43,
          44,
          45,
          46,
          47,
          48,
          49,
          50,
          51,
          52,
          53,
          54,
          55,
          56,
          57,
          58,
          59,
          60,
          61,
          62,
          63,
          64,
          65,
          66,
          67,
          68,
          69,
          70,
          71,
          72,
          73,
          74,
          75,
          76,
          77,
          78,
          79,
          80,
          81,
          82,
          83,
          84,
          85,
          86,
          87,
          88,
          89,
          90,
          91,
          92,
          93,
          94,
          95,
          96,
          97,
          98,
          99,
          100,
          101,
          102,
          103,
          104,
          105,
          106,
          107,
          108,
          109,
          110,
          111,
          112,
          113,
          114,
          115,
          116,
          117,
          118,
          119,
          120,
          121,
          122,
          123,
          124,
          125,
          126,
          127,
          128,
          129,
          130,
          131,
          132,
          133,
          134,
          135,
          136,
          137,
          138,
          139,
          140,
          141,
          142,
          143,
          144,
          145,
          146,
          147,
          148,
          149,
          150,
          151,
          152,
          153,
          154,
          155,
          156,
          157,
          158,
          159,
          160,
          161,
          162,
          163,
          164,
          165,
          166,
          167,
          168,
          169,
          170,
          171,
          172,
          173,
          174,
          175,
          176,
          177,
          178,
          179,
          180,
          181,
          182,
          183,
          184,
          185,
          186,
          187,
          188,
          189,
          190,
          191,
          192,
          193,
          194,
          195,
          196,
          197,
          198,
          199,
          200,
          201,
          202,
          203,
          204,
          205,
          206,
          207,
          208,
          209,
          210,
          211,
          212,
          213,
          214,
          215,
          216,
          217,
          218,
          219,
          220,
          221,
          222,
          223,
          224,
          225,
          226,
          227,
          228,
          229,
          230,
          231,
          232,
          233,
          234,
          235,
          236,
          237,
          238,
          239,
          240,
          241,
          242,
          243,
          244,
          245,
          246,
          247,
          248,
          249,
          250,
          251,
          252,
          253,
          254,
          255,
          256,
          257,
          258
        ],
        "AcquisitionTime": [
          "114542.532500",
          "114544.540000",
          "114546.547500",
          "114548.555000",
          "114550.565000",
          "114552.572500",
          "114554.580000",
          "114556.587500",
          "114558.597500",
          "114600.605000",
          "114602.612500",
          "114604.620000",
          "114606.627500",
          "114608.637500",
          "114610.645000",
          "114612.652500",
          "114614.660000",
          "114616.667500",
          "114618.677500",
          "114620.685000",
          "114622.692500",
          "114624.700000",
          "114626.710000",
          "114628.717500",
          "114630.725000",
          "114632.732500",
          "114634.740000",
          "114636.750000",
          "114638.757500",
          "114640.765000",
          "114642.772500",
          "114644.780000",
          "114646.790000",
          "114648.797500",
          "114650.805000",
          "114652.812500",
          "114654.820000",
          "114656.830000",
          "114658.837500",
          "114700.845000",
          "114702.852500",
          "114704.862500",
          "114706.870000",
          "114708.877500",
          "114710.885000",
          "114712.892500",
          "114714.902500",
          "114716.910000",
          "114718.917500",
          "114720.925000",
          "114722.932500",
          "114724.942500",
          "114726.950000",
          "114728.957500",
          "114730.965000",
          "114732.975000",
          "114734.982500",
          "114736.990000",
          "114738.997500",
          "114741.005000",
          "114743.015000",
          "114745.022500",
          "114747.030000",
          "114749.037500",
          "114751.045000",
          "114753.055000",
          "114755.062500",
          "114757.070000",
          "114759.077500",
          "114801.087500",
          "114803.095000",
          "114805.102500",
          "114807.110000",
          "114809.117500",
          "114811.127500",
          "114813.135000",
          "114815.142500",
          "114817.150000",
          "114819.157500",
          "114821.167500",
          "114823.175000",
          "114825.182500",
          "114827.190000",
          "114829.197500",
          "114831.207500",
          "114833.215000",
          "114835.222500",
          "114837.230000",
          "114839.240000",
          "114841.247500",
          "114843.255000",
          "114845.262500",
          "114847.270000",
          "114849.280000",
          "114851.287500",
          "114853.295000",
          "114855.302500",
          "114857.310000",
          "114859.320000",
          "114901.327500",
          "114903.335000",
          "114905.342500",
          "114907.352500",
          "114909.360000",
          "114911.367500",
          "114913.375000",
          "114915.382500",
          "114917.392500",
          "114919.400000",
          "114921.407500",
          "114923.415000",
          "114925.422500",
          "114927.432500",
          "114929.440000",
          "114931.447500",
          "114933.455000",
          "114935.465000",
          "114937.472500",
          "114939.480000",
          "114941.487500",
          "114943.495000",
          "114945.505000",
          "114947.512500",
          "114949.520000",
          "114951.527500",
          "114953.535000",
          "114955.545000",
          "114957.552500",
          "114959.560000",
          "115001.567500",
          "115003.575000",
          "115005.585000",
          "115007.592500",
          "115009.600000",
          "115011.607500",
          "115013.617500",
          "115015.625000",
          "115017.632500",
          "115019.640000",
          "115021.647500",
          "115023.657500",
          "115025.665000",
          "115027.672500",
          "115029.680000",
          "115031.687500",
          "115033.697500",
          "115035.705000",
          "115037.712500",
          "115039.720000",
          "115041.730000",
          "115043.737500",
          "115045.745000",
          "115047.752500",
          "115049.760000",
          "115051.770000",
          "115053.777500",
          "115055.785000",
          "115057.792500",
          "115059.800000",
          "115101.810000",
          "115103.817500",
          "115105.825000",
          "115107.832500",
          "115109.842500",
          "115111.850000",
          "115113.857500",
          "115115.865000",
          "115117.872500",
          "115119.882500",
          "115121.890000",
          "115123.897500",
          "115125.905000",
          "115127.912500",
          "115129.922500",
          "115131.930000",
          "115133.937500",
          "115135.945000",
          "115137.952500",
          "115139.962500",
          "115141.970000",
          "115143.977500",
          "115145.985000",
          "115147.995000",
          "115150.002500",
          "115152.010000",
          "115154.017500",
          "115156.025000",
          "115158.035000",
          "115200.042500",
          "115202.050000",
          "115204.057500",
          "115206.065000",
          "115208.075000",
          "115210.082500",
          "115212.090000",
          "115214.097500",
          "115216.107500",
          "115218.115000",
          "115220.122500",
          "115222.130000",
          "115224.137500",
          "115226.147500",
          "115228.155000",
          "115230.162500",
          "115232.170000",
          "115234.177500",
          "115236.187500",
          "115238.195000",
          "115240.202500",
          "115242.210000",
          "115244.220000",
          "115246.227500",
          "115248.235000",
          "115250.242500",
          "115252.250000",
          "115254.260000",
          "115256.267500",
          "115258.275000",
          "115300.282500",
          "115302.290000",
          "115304.300000",
          "115306.307500",
          "115308.315000",
          "115310.322500",
          "115312.330000",
          "115314.340000",
          "115316.347500",
          "115318.355000",
          "115320.362500",
          "115322.372500",
          "115324.380000",
          "115326.387500",
          "115328.395000",
          "115330.402500",
          "115332.412500",
          "115334.420000",
          "115336.427500",
          "115338.435000",
          "115340.442500",
          "115342.452500",
          "115344.460000",
          "115346.467500",
          "115348.475000",
          "115350.485000",
          "115352.492500",
          "115354.500000",
          "115356.507500",
          "115358.515000",
          "115400.525000",
          "115402.532500",
          "115404.540000",
          "115406.547500",
          "115408.555000",
          "115410.565000",
          "115412.572500",
          "115414.580000",
          "115416.587500",
          "115418.597500"
        ],
        "ContentTime": [
          "114639.281000",
          "114639.281000",
          "114639.281000",
          "114639.281000",
          "114639.281000",
          "114639.296000",
          "114639.296000",
          "114639.296000",
          "114639.296000",
          "114639.296000",
          "114639.296000",
          "114639.296000",
          "114639.296000",
          "114639.312000",
          "114639.312000",
          "114639.312000",
          "114639.312000",
          "114639.312000",
          "114639.312000",
          "114639.312000",
          "114639.312000",
          "114639.328000",
          "114639.328000",
          "114639.328000",
          "114639.328000",
          "114639.328000",
          "114639.328000",
          "114639.328000",
          "114719.281000",
          "114719.281000",
          "114719.281000",
          "114719.281000",
          "114719.281000",
          "114719.281000",
          "114719.281000",
          "114719.281000",
          "114719.296000",
          "114719.296000",
          "114719.296000",
          "114719.296000",
          "114719.296000",
          "114719.296000",
          "114719.296000",
          "114719.312000",
          "114719.312000",
          "114719.312000",
          "114719.312000",
          "114719.312000",
          "114759.281000",
          "114759.281000",
          "114759.281000",
          "114759.281000",
          "114759.281000",
          "114759.281000",
          "114759.281000",
          "114759.281000",
          "114759.296000",
          "114759.296000",
          "114759.296000",
          "114759.296000",
          "114759.296000",
          "114759.296000",
          "114759.296000",
          "114759.312000",
          "114759.312000",
          "114759.312000",
          "114759.312000",
          "114759.312000",
          "114839.281000",
          "114839.281000",
          "114839.281000",
          "114839.281000",
          "114839.281000",
          "114839.281000",
          "114839.281000",
          "114839.296000",
          "114839.296000",
          "114839.296000",
          "114839.296000",
          "114839.296000",
          "114839.296000",
          "114839.296000",
          "114839.296000",
          "114839.312000",
          "114839.312000",
          "114839.312000",
          "114839.312000",
          "114839.312000",
          "114919.281000",
          "114919.281000",
          "114919.281000",
          "114919.281000",
          "114919.281000",
          "114919.281000",
          "114919.281000",
          "114919.296000",
          "114919.296000",
          "114919.296000",
          "114919.296000",
          "114919.296000",
          "114919.296000",
          "114919.296000",
          "114919.296000",
          "114919.312000",
          "114919.312000",
          "114919.312000",
          "114919.312000",
          "114919.312000",
          "114959.281000",
          "114959.281000",
          "114959.281000",
          "114959.281000",
          "114959.281000",
          "114959.281000",
          "114959.281000",
          "114959.281000",
          "114959.296000",
          "114959.296000",
          "114959.296000",
          "114959.296000",
          "114959.296000",
          "114959.296000",
          "114959.296000",
          "114959.312000",
          "114959.312000",
          "114959.312000",
          "114959.312000",
          "114959.312000",
          "115039.281000",
          "115039.281000",
          "115039.281000",
          "115039.281000",
          "115039.281000",
          "115039.281000",
          "115039.281000",
          "115039.281000",
          "115039.296000",
          "115039.296000",
          "115039.296000",
          "115039.296000",
          "115039.296000",
          "115039.296000",
          "115039.296000",
          "115039.312000",
          "115039.312000",
          "115039.312000",
          "115039.312000",
          "115039.312000",
          "115119.281000",
          "115119.281000",
          "115119.281000",
          "115119.281000",
          "115119.281000",
          "115119.281000",
          "115119.281000",
          "115119.281000",
          "115119.296000",
          "115119.296000",
          "115119.296000",
          "115119.296000",
          "115119.296000",
          "115119.296000",
          "115119.296000",
          "115119.312000",
          "115119.312000",
          "115119.312000",
          "115119.312000",
          "115119.312000",
          "115159.281000",
          "115159.281000",
          "115159.281000",
          "115159.281000",
          "115159.281000",
          "115159.281000",
          "115159.281000",
          "115159.281000",
          "115159.296000",
          "115159.296000",
          "115159.296000",
          "115159.296000",
          "115159.296000",
          "115159.296000",
          "115159.296000",
          "115159.296000",
          "115159.312000",
          "115159.312000",
          "115159.312000",
          "115159.312000",
          "115239.281000",
          "115239.281000",
          "115239.281000",
          "115239.281000",
          "115239.281000",
          "115239.281000",
          "115239.281000",
          "115239.296000",
          "115239.296000",
          "115239.296000",
          "115239.296000",
          "115239.296000",
          "115239.296000",
          "115239.296000",
          "115239.296000",
          "115239.312000",
          "115239.312000",
          "115239.312000",
          "115239.312000",
          "115239.312000",
          "115319.281000",
          "115319.281000",
          "115319.281000",
          "115319.281000",
          "115319.281000",
          "115319.281000",
          "115319.281000",
          "115319.296000",
          "115319.296000",
          "115319.296000",
          "115319.296000",
          "115319.296000",
          "115319.296000",
          "115319.296000",
          "115319.296000",
          "115319.312000",
          "115319.312000",
          "115319.312000",
          "115319.312000",
          "115319.312000",
          "115359.281000",
          "115359.281000",
          "115359.281000",
          "115359.281000",
          "115359.281000",
          "115359.281000",
          "115359.281000",
          "115359.281000",
          "115359.296000",
          "115359.296000",
          "115359.296000",
          "115359.296000",
          "115359.296000",
          "115359.296000",
          "115359.296000",
          "115359.312000",
          "115359.312000",
          "115359.312000",
          "115359.312000",
          "115359.312000",
          "115417.562000",
          "115417.562000",
          "115417.562000",
          "115417.562000",
          "115417.562000",
          "115417.562000",
          "115417.578000",
          "115417.578000",
          "115417.578000",
          "115417.578000"
        ],
        "InstanceCreationTime": [
          "114639.281000",
          "114639.281000",
          "114639.281000",
          "114639.281000",
          "114639.281000",
          "114639.296000",
          "114639.296000",
          "114639.296000",
          "114639.296000",
          "114639.296000",
          "114639.296000",
          "114639.296000",
          "114639.296000",
          "114639.312000",
          "114639.312000",
          "114639.312000",
          "114639.312000",
          "114639.312000",
          "114639.312000",
          "114639.312000",
          "114639.312000",
          "114639.328000",
          "114639.328000",
          "114639.328000",
          "114639.328000",
          "114639.328000",
          "114639.328000",
          "114639.328000",
          "114719.281000",
          "114719.281000",
          "114719.281000",
          "114719.281000",
          "114719.281000",
          "114719.281000",
          "114719.281000",
          "114719.281000",
          "114719.296000",
          "114719.296000",
          "114719.296000",
          "114719.296000",
          "114719.296000",
          "114719.296000",
          "114719.296000",
          "114719.312000",
          "114719.312000",
          "114719.312000",
          "114719.312000",
          "114719.312000",
          "114759.281000",
          "114759.281000",
          "114759.281000",
          "114759.281000",
          "114759.281000",
          "114759.281000",
          "114759.281000",
          "114759.281000",
          "114759.296000",
          "114759.296000",
          "114759.296000",
          "114759.296000",
          "114759.296000",
          "114759.296000",
          "114759.296000",
          "114759.312000",
          "114759.312000",
          "114759.312000",
          "114759.312000",
          "114759.312000",
          "114839.281000",
          "114839.281000",
          "114839.281000",
          "114839.281000",
          "114839.281000",
          "114839.281000",
          "114839.281000",
          "114839.296000",
          "114839.296000",
          "114839.296000",
          "114839.296000",
          "114839.296000",
          "114839.296000",
          "114839.296000",
          "114839.296000",
          "114839.312000",
          "114839.312000",
          "114839.312000",
          "114839.312000",
          "114839.312000",
          "114919.281000",
          "114919.281000",
          "114919.281000",
          "114919.281000",
          "114919.281000",
          "114919.281000",
          "114919.281000",
          "114919.296000",
          "114919.296000",
          "114919.296000",
          "114919.296000",
          "114919.296000",
          "114919.296000",
          "114919.296000",
          "114919.296000",
          "114919.312000",
          "114919.312000",
          "114919.312000",
          "114919.312000",
          "114919.312000",
          "114959.281000",
          "114959.281000",
          "114959.281000",
          "114959.281000",
          "114959.281000",
          "114959.281000",
          "114959.281000",
          "114959.281000",
          "114959.296000",
          "114959.296000",
          "114959.296000",
          "114959.296000",
          "114959.296000",
          "114959.296000",
          "114959.296000",
          "114959.312000",
          "114959.312000",
          "114959.312000",
          "114959.312000",
          "114959.312000",
          "115039.281000",
          "115039.281000",
          "115039.281000",
          "115039.281000",
          "115039.281000",
          "115039.281000",
          "115039.281000",
          "115039.281000",
          "115039.296000",
          "115039.296000",
          "115039.296000",
          "115039.296000",
          "115039.296000",
          "115039.296000",
          "115039.296000",
          "115039.312000",
          "115039.312000",
          "115039.312000",
          "115039.312000",
          "115039.312000",
          "115119.281000",
          "115119.281000",
          "115119.281000",
          "115119.281000",
          "115119.281000",
          "115119.281000",
          "115119.281000",
          "115119.281000",
          "115119.296000",
          "115119.296000",
          "115119.296000",
          "115119.296000",
          "115119.296000",
          "115119.296000",
          "115119.296000",
          "115119.312000",
          "115119.312000",
          "115119.312000",
          "115119.312000",
          "115119.312000",
          "115159.281000",
          "115159.281000",
          "115159.281000",
          "115159.281000",
          "115159.281000",
          "115159.281000",
          "115159.281000",
          "115159.281000",
          "115159.296000",
          "115159.296000",
          "115159.296000",
          "115159.296000",
          "115159.296000",
          "115159.296000",
          "115159.296000",
          "115159.296000",
          "115159.312000",
          "115159.312000",
          "115159.312000",
          "115159.312000",
          "115239.281000",
          "115239.281000",
          "115239.281000",
          "115239.281000",
          "115239.281000",
          "115239.281000",
          "115239.281000",
          "115239.296000",
          "115239.296000",
          "115239.296000",
          "115239.296000",
          "115239.296000",
          "115239.296000",
          "115239.296000",
          "115239.296000",
          "115239.312000",
          "115239.312000",
          "115239.312000",
          "115239.312000",
          "115239.312000",
          "115319.281000",
          "115319.281000",
          "115319.281000",
          "115319.281000",
          "115319.281000",
          "115319.281000",
          "115319.281000",
          "115319.296000",
          "115319.296000",
          "115319.296000",
