{
  "AcquisitionMatrixPE": 68,
  "AcquisitionNumber": 1,
  "AcquisitionTime": "11:40:18.045000",
  "BandwidthPerPixelPhaseEncode": 31.289,
  "BaseResolution": 68,
  "CoilString": "C:HEA;HEP",
  "ConversionSoftware": "dcm2niix",
  "ConversionSoftwareVersion": "v1.0.20190902",
  "DerivedVendorReportedEchoSpacing": 0.000470002,
  "DeviceSerialNumber": "35450",
  "DwellTime": 3e-06,
  "EchoTime": 0.023,
  "EffectiveEchoSpacing": 0.000470002,
  "FlipAngle": 76,
  "ImageOrientationPatientDICOM": [1, 0, 0, 0, 0.985703, -0.168489],
  "ImageType": [
    "ORIGINAL",
    "PRIMARY",
    "M",
    "ND",
    "MOSAIC"
],
  "ImagingFrequency": 123.218,
  "InPlanePhaseEncodingDirectionDICOM": "COL",
  "InstitutionAddress": "Univeristy_Ave._197_Newark_North_East_US_07102-1814",
  "InstitutionName": "RUBIC",
  "InstitutionalDepartmentName": "Department",
  "MRAcquisitionType": "2D",
  "MagneticFieldStrength": 3,
  "Manufacturer": "Siemens",
  "ManufacturersModelName": "TrioTim",
  "Modality": "MR",
  "PartialFourier": 1,
  "PatientPosition": "HFS",
  "PercentPhaseFOV": 100,
  "PhaseEncodingDirection": "j-",
  "PhaseEncodingSteps": 68,
  "PhaseResolution": 1,
  "PixelBandwidth": 2451,
  "ProcedureStepDescription": "Krekelberg_David",
  "ProtocolName": "ep2d_bold_CardGameEPI_1",
  "PulseSequenceDetails": "%SiemensSeq%_ep2d_bold",
  "ReceiveCoilName": "HeadMatrix",
  "ReconMatrixPE": 68,
  "RepetitionTime": 2,
  "SAR": 0.14387,
  "ScanOptions": "FS",
  "ScanningSequence": "EP",
  "SequenceName": "_epfid2d1_68",
  "SequenceVariant": "SK",
  "SeriesDescription": "ep2d_bold_CardGameEPI_1",
  "SeriesNumber": 5,
  "ShimSetting": [1937, -529, -7626, 969, 130, 36, -699, -34],
  "SliceThickness": 2.5,
  "SliceTiming": [1.9525, 1.8975, 1.84, 1.785, 1.73, 1.6725, 1.6175, 1.5625, 1.505, 1.45, 1.395, 1.34, 1.2825, 1.2275, 1.1725, 1.115, 1.06, 1.005, 0.9475, 0.8925, 0.8375, 0.7825, 0.725, 0.67, 0.615, 0.5575, 0.5025, 0.4475, 0.39, 0.335, 0.28, 0.2225, 0.1675, 0.1125, 0.0575, 0],
  "SoftwareVersions": "syngo_MR_B19",
  "SpacingBetweenSlices": 3,
  "StationName": "MRC35450",
  "TaskName": "cardgame",
  "TotalReadoutTime": 0.0314901,
  "TxRefAmp": 336.035,
  "dcmmeta_affine": [
    [-3.0, 0.0, 0.0, 101.32203674316406],
    [0.0, 2.9571104049682617, -0.5054681301116943, -72.46776580810547],
    [0.0, 0.5054681301116943, 2.9571104049682617, -51.48072814941406],
    [0.0, 0.0, 0.0, 1.0]
],
  "dcmmeta_reorient_transform": [
    [0.0, -1.0, 0.0, 67.0],
    [1.0, 0.0, 0.0, 0.0],
    [0.0, 0.0, 1.0, 0.0],
    [0.0, 0.0, 0.0, 1.0]
],
  "dcmmeta_shape": [68, 68, 36, 258],
  "dcmmeta_slice_dim": 2,
  "dcmmeta_version": 0.6,
  "global": {
    "const": {
      "AcquisitionMatrix": [68, 0, 0, 68],
      "AngioFlag": "N",
      "BitsAllocated": 16,
      "BitsStored": 12,
      "Columns": 408,
      "EchoNumbers": 1,
      "EchoTime": 23.0,
      "EchoTrainLength": 1,
      "FlipAngle": 76.0,
      "HighBit": 11,
      "ImageOrientationPatient": [1.0, 0.0, 0.0, 0.0, 0.98570346846845, -0.1684893831945],
      "ImagePositionPatient": [-611.32203388214, -628.36740121221, 68.315224805085],
      "ImageType": [
        "ORIGINAL",
        "PRIMARY",
        "M",
        "ND",
        "MOSAIC"
],
      "ImagedNucleus": "1H",
      "ImagingFrequency": 123.218473,
      "InPlanePhaseEncodingDirection": "COL",
      "MRAcquisitionType": "2D",
      "MagneticFieldStrength": 3.0,
      "Manufacturer": "SIEMENS",
      "ManufacturerModelName": "TrioTim",
      "Modality": "MR",
      "NumberOfAverages": 1.0,
      "NumberOfPhaseEncodingSteps": 68,
      "PercentPhaseFieldOfView": 100.0,
      "PercentSampling": 100.0,
      "PerformedProcedureStepStartTime": "111733.328000",
      "PhotometricInterpretation": "MONOCHROME2",
      "PixelBandwidth": 2451.0,
      "PixelRepresentation": 0,
      "PixelSpacing": [3.0, 3.0],
      "ProtocolName": "ep2d_bold_CardGameEPI_1",
      "RepetitionTime": 2000.0,
      "Rows": 408,
      "SAR": 0.14387008872632,
      "SamplesPerPixel": 1,
      "ScanOptions": "FS",
      "ScanningSequence": "EP",
      "SequenceName": "*epfid2d1_68",
      "SequenceVariant": "SK",
      "SeriesDescription": "ep2d_bold_CardGameEPI_1",
      "SeriesNumber": 5,
      "SeriesTime": "114115.281000",
      "SliceLocation": -38.534681810215,
      "SliceThickness": 2.5,
      "SmallestImagePixelValue": 0,
      "SoftwareVersions": "syngo MR B19",
      "SpacingBetweenSlices": 2.9999999659868,
      "SpecificCharacterSet": "ISO_IR 100",
      "StudyID": "1",
      "StudyTime": "111733.296000",
      "TransmitCoilName": "Body",
      "VariableFlipAngleFlag": "N",
      "WindowCenterWidthExplanation": "Algo1",
      "dBdt": 0.0},
    "slices": {}
  },
  "time": {
    "samples": {
      "AcquisitionNumber": [1, 2, 3, 4, 5, 6, 7, 8, 9, 10, 11, 12, 13, 14, 15, 16, 17, 18, 19, 20, 21, 22, 23, 24, 25, 26, 27, 28, 29, 30, 31, 32, 33, 34, 35, 36, 37, 38, 39, 40, 41, 42, 43, 44, 45, 46, 47, 48, 49, 50, 51, 52, 53, 54, 55, 56, 57, 58, 59, 60, 61, 62, 63, 64, 65, 66, 67, 68, 69, 70, 71, 72, 73, 74, 75, 76, 77, 78, 79, 80, 81, 82, 83, 84, 85, 86, 87, 88, 89, 90, 91, 92, 93, 94, 95, 96, 97, 98, 99, 100, 101, 102, 103, 104, 105, 106, 107, 108, 109, 110, 111, 112, 113, 114, 115, 116, 117, 118, 119, 120, 121, 122, 123, 124, 125, 126, 127, 128, 129, 130, 131, 132, 133, 134, 135, 136, 137, 138, 139, 140, 141, 142, 143, 144, 145, 146, 147, 148, 149, 150, 151, 152, 153, 154, 155, 156, 157, 158, 159, 160, 161, 162, 163, 164, 165, 166, 167, 168, 169, 170, 171, 172, 173, 174, 175, 176, 177, 178, 179, 180, 181, 182, 183, 184, 185, 186, 187, 188, 189, 190, 191, 192, 193, 194, 195, 196, 197, 198, 199, 200, 201, 202, 203, 204, 205, 206, 207, 208, 209, 210, 211, 212, 213, 214, 215, 216, 217, 218, 219, 220, 221, 222, 223, 224, 225, 226, 227, 228, 229, 230, 231, 232, 233, 234, 235, 236, 237, 238, 239, 240, 241, 242, 243, 244, 245, 246, 247, 248, 249, 250, 251, 252, 253, 254, 255, 256, 257, 258],
      "AcquisitionTime": ["114018.045000", "114020.052500", "114022.060000", "114024.070000", "114026.077500", "114028.085000", "114030.092500", "114032.100000", "114034.110000", "114036.117500", "114038.125000", "114040.132500", "114042.140000", "114044.150000", "114046.157500", "114048.165000", "114050.172500", "114052.182500", "114054.190000", "114056.197500", "114058.205000", "114100.212500", "114102.222500", "114104.230000", "114106.237500", "114108.245000", "114110.252500", "114112.262500", "114114.270000", "114116.277500", "114118.285000", "114120.295000", "114122.302500", "114124.310000", "114126.317500", "114128.325000", "114130.335000", "114132.342500", "114134.350000", "114136.357500", "114138.365000", "114140.375000", "114142.382500", "114144.390000", "114146.397500", "114148.405000", "114150.415000", "114152.422500", "114154.430000", "114156.437500", "114158.447500", "114200.455000", "114202.462500", "114204.470000", "114206.477500", "114208.487500", "114210.495000", "114212.502500", "114214.510000", "114216.517500", "114218.527500", "114220.535000", "114222.542500", "114224.550000", "114226.560000", "114228.567500", "114230.575000", "114232.582500", "114234.590000", "114236.600000", "114238.607500", "114240.615000", "114242.622500", "114244.630000", "114246.640000", "114248.647500", "114250.655000", "114252.662500", "114254.672500", "114256.680000", "114258.687500", "114300.695000", "114302.702500", "114304.712500", "114306.720000", "114308.727500", "114310.735000", "114312.742500", "114314.752500", "114316.760000", "114318.767500", "114320.775000", "114322.782500", "114324.792500", "114326.800000", "114328.807500", "114330.815000", "114332.825000", "114334.832500", "114336.840000", "114338.847500", "114340.855000", "114342.865000", "114344.872500", "114346.880000", "114348.887500", "114350.895000", "114352.905000", "114354.912500", "114356.920000", "114358.927500", "114400.937500", "114402.945000", "114404.952500", "114406.960000", "114408.967500", "114410.977500", "114412.985000", "114414.992500", "114417.000000", "114419.007500", "114421.017500", "114423.025000", "114425.032500", "114427.040000", "114429.050000", "114431.057500", "114433.065000", "114435.072500", "114437.080000", "114439.090000", "114441.097500", "114443.105000", "114445.112500", "114447.120000", "114449.130000", "114451.137500", "114453.145000", "114455.152500", "114457.162500", "114459.170000", "114501.177500", "114503.185000", "114505.192500", "114507.202500", "114509.210000", "114511.217500", "114513.225000", "114515.232500", "114517.242500", "114519.250000", "114521.257500", "114523.265000", "114525.272500", "114527.282500", "114529.290000", "114531.297500", "114533.305000", "114535.315000", "114537.322500", "114539.330000", "114541.337500", "114543.345000", "114545.355000", "114547.362500", "114549.370000", "114551.377500", "114553.385000", "114555.395000", "114557.402500", "114559.410000", "114601.417500", "114603.427500", "114605.435000", "114607.442500", "114609.450000", "114611.457500", "114613.467500", "114615.475000", "114617.482500", "114619.490000", "114621.497500", "114623.507500", "114625.515000", "114627.522500", "114629.530000", "114631.540000", "114633.547500", "114635.555000", "114637.562500", "114639.570000", "114641.580000", "114643.587500", "114645.595000", "114647.602500", "114649.610000", "114651.620000", "114653.627500", "114655.635000", "114657.642500", "114659.650000", "114701.660000", "114703.667500", "114705.675000", "114707.682500", "114709.692500", "114711.700000", "114713.707500", "114715.715000", "114717.722500", "114719.732500", "114721.740000", "114723.747500", "114725.755000", "114727.762500", "114729.772500", "114731.780000", "114733.787500", "114735.795000", "114737.805000", "114739.812500", "114741.820000", "114743.827500", "114745.835000", "114747.845000", "114749.852500", "114751.860000", "114753.867500", "114755.875000", "114757.885000", "114759.892500", "114801.900000", "114803.907500", "114805.917500", "114807.925000", "114809.932500", "114811.940000", "114813.947500", "114815.957500", "114817.965000", "114819.972500", "114821.980000", "114823.987500", "114825.997500", "114828.005000", "114830.012500", "114832.020000", "114834.027500", "114836.037500", "114838.045000", "114840.052500", "114842.060000", "114844.070000", "114846.077500", "114848.085000", "114850.092500", "114852.100000", "114854.110000"],
      "ContentTime": ["114115.296000", "114115.296000", "114115.296000", "114115.312000", "114115.312000", "114115.312000", "114115.312000", "114115.312000", "114115.312000", "114115.312000", "114115.312000", "114115.328000", "114115.328000", "114115.328000", "114115.328000", "114115.328000", "114115.328000", "114115.343000", "114115.343000", "114115.343000", "114115.343000", "114115.343000", "114115.343000", "114115.343000", "114115.359000", "114115.359000", "114115.359000", "114115.359000", "114115.359000", "114155.281000", "114155.281000", "114155.281000", "114155.281000", "114155.296000", "114155.296000", "114155.296000", "114155.296000", "114155.296000", "114155.296000", "114155.296000", "114155.296000", "114155.312000", "114155.312000", "114155.312000", "114155.312000", "114155.312000", "114155.312000", "114155.312000", "114155.328000", "114235.281000", "114235.281000", "114235.281000", "114235.281000", "114235.281000", "114235.296000", "114235.296000", "114235.296000", "114235.296000", "114235.296000", "114235.296000", "114235.296000", "114235.312000", "114235.312000", "114235.312000", "114235.312000", "114235.312000", "114235.312000", "114235.312000", "114235.328000", "114315.281000", "114315.281000", "114315.281000", "114315.281000", "114315.296000", "114315.296000", "114315.296000", "114315.296000", "114315.296000", "114315.296000", "114315.296000", "114315.312000", "114315.312000", "114315.312000", "114315.312000", "114315.312000", "114315.312000", "114315.328000", "114315.328000", "114315.328000", "114355.281000", "114355.281000", "114355.281000", "114355.281000", "114355.296000", "114355.296000", "114355.296000", "114355.296000", "114355.296000", "114355.296000", "114355.296000", "114355.312000", "114355.312000", "114355.312000", "114355.312000", "114355.312000", "114355.312000", "114355.312000", "114355.312000", "114355.328000", "114435.281000", "114435.281000", "114435.281000", "114435.281000", "114435.296000", "114435.296000", "114435.296000", "114435.296000", "114435.296000", "114435.296000", "114435.296000", "114435.296000", "114435.312000", "114435.312000", "114435.312000", "114435.312000", "114435.312000", "114435.312000", "114435.312000", "114435.328000", "114515.281000", "114515.281000", "114515.281000", "114515.281000", "114515.296000", "114515.296000", "114515.296000", "114515.296000", "114515.296000", "114515.296000", "114515.296000", "114515.312000", "114515.312000", "114515.312000", "114515.312000", "114515.312000", "114515.312000", "114515.312000", "114515.312000", "114515.328000", "114555.281000", "114555.281000", "114555.281000", "114555.281000", "114555.296000", "114555.296000", "114555.296000", "114555.296000", "114555.296000", "114555.296000", "114555.296000", "114555.312000", "114555.312000", "114555.312000", "114555.312000", "114555.312000", "114555.312000", "114555.312000", "114555.312000", "114555.328000", "114635.281000", "114635.281000", "114635.281000", "114635.281000", "114635.296000", "114635.296000", "114635.296000", "114635.296000", "114635.296000", "114635.296000", "114635.296000", "114635.312000", "114635.312000", "114635.312000", "114635.312000", "114635.312000", "114635.312000", "114635.312000", "114635.312000", "114635.328000", "114715.281000", "114715.281000", "114715.281000", "114715.281000", "114715.296000", "114715.296000", "114715.296000", "114715.296000", "114715.296000", "114715.296000", "114715.296000", "114715.296000", "114715.312000", "114715.312000", "114715.312000", "114715.312000", "114715.312000", "114715.312000", "114715.312000", "114715.328000", "114755.281000", "114755.281000", "114755.281000", "114755.281000", "114755.296000", "114755.296000", "114755.296000", "114755.296000", "114755.296000", "114755.296000", "114755.296000", "114755.296000", "114755.312000", "114755.312000", "114755.312000", "114755.312000", "114755.312000", "114755.312000", "114755.312000", "114755.328000", "114835.281000", "114835.281000", "114835.281000", "114835.281000", "114835.296000", "114835.296000", "114835.296000", "114835.296000", "114835.296000", "114835.296000", "114835.296000", "114835.296000", "114835.312000", "114835.312000", "114835.312000", "114835.312000", "114835.312000", "114835.312000", "114835.312000", "114835.328000", "114852.359000", "114852.359000", "114852.375000", "114852.375000", "114852.375000", "114852.375000", "114852.375000", "114852.375000", "114852.375000"],
      "InstanceCreationTime": ["114115.296000", "114115.296000", "114115.296000", "114115.312000", "114115.312000", "114115.312000", "114115.312000", "114115.312000", "114115.312000", "114115.312000", "114115.312000", "114115.328000", "114115.328000", "114115.328000", "114115.328000", "114115.328000", "114115.328000", "114115.343000", "114115.343000", "114115.343000", "114115.343000", "114115.343000", "114115.343000", "114115.343000", "114115.359000", "114115.359000", "114115.359000", "114115.359000", "114115.359000", "114155.281000", "114155.281000", "114155.281000", "114155.281000", "114155.296000", "114155.296000", "114155.296000", "114155.296000", "114155.296000", "114155.296000", "114155.296000", "114155.296000", "114155.312000", "114155.312000", "114155.312000", "114155.312000", "114155.312000", "114155.312000", "114155.312000", "114155.328000", "114235.281000", "114235.281000", "114235.281000", "114235.281000", "114235.281000", "114235.296000", "114235.296000", "114235.296000", "114235.296000", "114235.296000", "114235.296000", "114235.296000", "114235.312000", "114235.312000", "114235.312000", "114235.312000", "114235.312000", "114235.312000", "114235.312000", "114235.328000", "114315.281000", "114315.281000", "114315.281000", "114315.281000", "114315.296000", "114315.296000", "114315.296000", "114315.296000", "114315.296000", "114315.296000", "114315.296000", "114315.312000", "114315.312000", "114315.312000", "114315.312000", "114315.312000", "114315.312000", "114315.328000", "114315.328000", "114315.328000", "114355.281000", "114355.281000", "114355.281000", "114355.281000", "114355.296000", "114355.296000", "114355.296000", "114355.296000", "114355.296000", "114355.296000", "114355.296000", "114355.312000", "114355.312000", "114355.312000", "114355.312000", "114355.312000", "114355.312000", "114355.312000", "114355.312000", "114355.328000", "114435.281000", "114435.281000", "114435.281000", "114435.281000", "114435.296000", "114435.296000", "114435.296000", "114435.296000", "114435.296000", "114435.296000", "114435.296000", "114435.296000", "114435.312000", "114435.312000", "114435.312000", "114435.312000", "114435.312000", "114435.312000", "114435.312000", "114435.328000", "114515.281000", "114515.281000", "114515.281000", "114515.281000", "114515.296000", "114515.296000", "114515.296000", "114515.296000", "114515.296000", "114515.296000", "114515.296000", "114515.312000", "114515.312000", "114515.312000", "114515.312000", "114515.312000", "114515.312000", "114515.312000", "114515.312000", "114515.328000", "114555.281000", "114555.281000", "114555.281000", "114555.281000", "114555.296000", "114555.296000", "114555.296000", "114555.296000", "114555.296000", "114555.296000", "114555.296000", "114555.312000", "114555.312000", "114555.312000", "114555.312000", "114555.312000", "114555.312000", "114555.312000", "114555.312000", "114555.328000", "114635.281000", "114635.281000", "114635.281000", "114635.281000", "114635.296000", "114635.296000", "114635.296000", "114635.296000", "114635.296000", "114635.296000", "114635.296000", "114635.312000", "114635.312000", "114635.312000", "114635.312000", "114635.312000", "114635.312000", "114635.312000", "114635.312000", "114635.328000", "114715.281000", "114715.281000", "114715.281000", "114715.281000", "114715.296000", "114715.296000", "114715.296000", "114715.296000", "114715.296000", "114715.296000", "114715.296000", "114715.296000", "114715.312000", "114715.312000", "114715.312000", "114715.312000", "114715.312000", "114715.312000", "114715.312000", "114715.328000", "114755.281000", "114755.281000", "114755.281000", "114755.281000", "114755.296000", "114755.296000", "114755.296000", "114755.296000", "114755.296000", "114755.296000", "114755.296000", "114755.296000", "114755.312000", "114755.312000", "114755.312000", "114755.312000", "114755.312000", "114755.312000", "114755.312000", "114755.328000", "114835.281000", "114835.281000", "114835.281000", "114835.281000", "114835.296000", "114835.296000", "114835.296000", "114835.296000", "114835.296000", "114835.296000", "114835.296000", "114835.296000", "114835.312000", "114835.312000", "114835.312000", "114835.312000", "114835.312000", "114835.312000", "114835.312000", "114835.328000", "114852.359000", "114852.359000", "114852.375000", "114852.375000", "114852.375000", "114852.375000", "114852.375000", "114852.375000", "114852.375000"],
      "InstanceNumber": [1, 2, 3, 4, 5, 6, 7, 8, 9, 10, 11, 12, 13, 14, 15, 16, 17, 18, 19, 20, 21, 22, 23, 24, 25, 26, 27, 28, 29, 30, 31, 32, 33, 34, 35, 36, 37, 38, 39, 40, 41, 42, 43, 44, 45, 46, 47, 48, 49, 50, 51, 52, 53, 54, 55, 56, 57, 58, 59, 60, 61, 62, 63, 64, 65, 66, 67, 68, 69, 70, 71, 72, 73, 74, 75, 76, 77, 78, 79, 80, 81, 82, 83, 84, 85, 86, 87, 88, 89, 90, 91, 92, 93, 94, 95, 96, 97, 98, 99, 100, 101, 102, 103, 104, 105, 106, 107, 108, 109, 110, 111, 112, 113, 114, 115, 116, 117, 118, 119, 120, 121, 122, 123, 124, 125, 126, 127, 128, 129, 130, 131, 132, 133, 134, 135, 136, 137, 138, 139, 140, 141, 142, 143, 144, 145, 146, 147, 148, 149, 150, 151, 152, 153, 154, 155, 156, 157, 158, 159, 160, 161, 162, 163, 164, 165, 166, 167, 168, 169, 170, 171, 172, 173, 174, 175, 176, 177, 178, 179, 180, 181, 182, 183, 184, 185, 186, 187, 188, 189, 190, 191, 192, 193, 194, 195, 196, 197, 198, 199, 200, 201, 202, 203, 204, 205, 206, 207, 208, 209, 210, 211, 212, 213, 214, 215, 216, 217, 218, 219, 220, 221, 222, 223, 224, 225, 226, 227, 228, 229, 230, 231, 232, 233, 234, 235, 236, 237, 238, 239, 240, 241, 242, 243, 244, 245, 246, 247, 248, 249, 250, 251, 252, 253, 254, 255, 256, 257, 258],
      "LargestImagePixelValue": [1902, 1895, 1726, 1747, 1736, 1699, 1697, 1719, 1765, 1668, 1690, 1698, 1730, 1685, 1693, 1681, 1720, 1799, 1711, 1678, 1738, 1721, 1701, 1834, 1698, 1679, 1711, 1713, 1762, 1773, 1773, 1740, 1697, 1753, 1744, 1763, 1696, 1739, 1698, 1737, 1687, 1745, 1762, 1811, 1712, 1725, 1707, 1706, 1702, 1821, 1809, 1683, 1746, 1767, 1707, 1712, 1702, 1712, 1742, 1701, 1714, 1735, 1707, 1776, 1776, 1703, 1726, 1716, 1890, 1704, 1700, 1752, 1754, 1754, 1707, 1713, 1713, 1722, 1795, 1727, 1786, 1728, 1710, 1718, 1737, 1725, 1742, 1725, 1814, 1798, 1736, 1799, 1680, 1707, 1746, 1799, 1716, 1762, 1780, 1709, 1733, 1723, 1757, 1752, 1767, 1743, 1729, 1759, 1723, 1769, 1906, 1694, 1729, 1744, 1754, 1723, 1728, 1693, 1724, 1790, 1813, 1773, 1726, 1716, 1802, 1761, 1734, 1841, 1830, 1908, 1711, 1785, 1804, 1716, 1714, 1751, 1704, 1877, 1752, 1741, 1723, 1725, 1910, 1760, 1741, 1713, 1734, 1864, 1795, 1788, 1750, 1730, 1722, 1810, 1747, 1933, 1723, 1951, 1708, 1704, 1715, 1788, 1742, 1731, 1812, 1879, 1752, 1722, 1792, 1902, 1828, 1700, 1726, 1849, 1895, 1776, 1737, 1691, 1727, 1801, 1845, 1729, 1853, 1812, 1732, 1681, 1716, 1818, 1911, 1758, 1741, 1750, 2001, 1718, 1750, 1809, 1898, 1733, 1720, 1738, 1888, 1772, 1712, 1696, 1741, 1734, 1946, 1701, 1705, 1755, 1710, 1844, 1815, 1797, 1849, 1777, 1739, 1800, 1775, 1775, 1911, 1782, 1742, 1808, 1731, 1803, 1689, 1750, 1889, 1846, 1725, 1832, 1836, 1860, 1758, 1768, 1775, 1869, 1911, 1981, 1686, 1743, 1736, 1767, 1712, 1848, 1806, 1731, 1819, 1798, 1874, 1950, 1834, 1726, 1760, 1922, 1788, 1745],
      "WindowCenter": [796.0, 792.0, 788.0, 788.0, 788.0, 787.0, 787.0, 789.0, 788.0, 788.0, 788.0, 787.0, 788.0, 788.0, 788.0, 789.0, 789.0, 788.0, 788.0, 787.0, 789.0, 791.0, 790.0, 790.0, 788.0, 790.0, 790.0, 790.0, 793.0, 791.0, 791.0, 791.0, 790.0, 792.0, 792.0, 794.0, 791.0, 790.0, 791.0, 790.0, 789.0, 789.0, 790.0, 791.0, 789.0, 789.0, 789.0, 790.0, 789.0, 791.0, 791.0, 789.0, 790.0, 790.0, 789.0, 790.0, 790.0, 791.0, 790.0, 791.0, 791.0, 790.0, 792.0, 792.0, 792.0, 791.0, 791.0, 790.0, 790.0, 789.0, 789.0, 791.0, 790.0, 790.0, 790.0, 791.0, 791.0, 790.0, 791.0, 790.0, 791.0, 791.0, 792.0, 791.0, 791.0, 792.0, 794.0, 793.0, 794.0, 792.0, 791.0, 792.0, 792.0, 792.0, 792.0, 793.0, 792.0, 792.0, 792.0, 792.0, 791.0, 792.0, 792.0, 792.0, 792.0, 792.0, 792.0, 792.0, 792.0, 793.0, 793.0, 792.0, 792.0, 792.0, 793.0, 793.0, 794.0, 793.0, 794.0, 794.0, 793.0, 793.0, 792.0, 792.0, 793.0, 794.0, 792.0, 796.0, 798.0, 795.0, 791.0, 791.0, 792.0, 791.0, 791.0, 792.0, 791.0, 793.0, 793.0, 792.0, 793.0, 793.0, 795.0, 793.0, 793.0, 794.0, 795.0, 795.0, 794.0, 795.0, 794.0, 793.0, 793.0, 794.0, 794.0, 796.0, 794.0, 796.0, 793.0, 793.0, 793.0, 793.0, 793.0, 793.0, 793.0, 794.0, 793.0, 793.0, 794.0, 794.0, 793.0, 793.0, 794.0, 794.0, 796.0, 794.0, 794.0, 795.0, 795.0, 795.0, 797.0, 794.0, 795.0, 795.0, 794.0, 795.0, 796.0, 795.0, 795.0, 795.0, 795.0, 795.0, 796.0, 793.0, 794.0, 796.0, 795.0, 793.0, 794.0, 794.0, 795.0, 794.0, 794.0, 795.0, 796.0, 796.0, 797.0, 796.0, 795.0, 796.0, 796.0, 795.0, 796.0, 796.0, 795.0, 796.0, 796.0, 796.0, 795.0, 796.0, 797.0, 796.0, 795.0, 795.0, 795.0, 795.0, 796.0, 797.0, 796.0, 796.0, 795.0, 797.0, 796.0, 796.0, 796.0, 797.0, 800.0, 799.0, 798.0, 796.0, 794.0, 793.0, 794.0, 795.0, 795.0, 800.0, 802.0, 798.0, 798.0, 796.0, 798.0, 798.0, 797.0, 796.0, 796.0, 798.0, 797.0, 797.0],
      "WindowWidth": [1703.0, 1692.0, 1679.0, 1680.0, 1680.0, 1677.0, 1676.0, 1680.0, 1680.0, 1678.0, 1678.0, 1676.0, 1680.0, 1680.0, 1680.0, 1684.0, 1683.0, 1680.0, 1679.0, 1677.0, 1684.0, 1689.0, 1686.0, 1687.0, 1681.0, 1684.0, 1685.0, 1686.0, 1694.0, 1689.0, 1689.0, 1690.0, 1684.0, 1691.0, 1691.0, 1696.0, 1688.0, 1687.0, 1687.0, 1686.0, 1684.0, 1684.0, 1685.0, 1687.0, 1683.0, 1683.0, 1684.0, 1685.0, 1683.0, 1688.0, 1688.0, 1684.0, 1686.0, 1686.0, 1682.0, 1686.0, 1687.0, 1688.0, 1687.0, 1687.0, 1688.0, 1687.0, 1692.0, 1692.0, 1691.0, 1687.0, 1688.0, 1686.0, 1687.0, 1683.0, 1682.0, 1687.0, 1686.0, 1685.0, 1686.0, 1688.0, 1687.0, 1686.0, 1689.0, 1687.0, 1687.0, 1689.0, 1691.0, 1687.0, 1687.0, 1692.0, 1697.0, 1695.0, 1697.0, 1692.0, 1689.0, 1692.0, 1690.0, 1689.0, 1691.0, 1692.0, 1691.0, 1692.0, 1691.0, 1690.0, 1688.0, 1690.0, 1690.0, 1691.0, 1691.0, 1690.0, 1691.0, 1692.0, 1689.0, 1694.0, 1695.0, 1690.0, 1689.0, 1690.0, 1692.0, 1692.0, 1695.0, 1694.0, 1695.0, 1696.0, 1695.0, 1693.0, 1691.0, 1690.0, 1694.0, 1694.0, 1692.0, 1702.0, 1707.0, 1698.0, 1689.0, 1688.0, 1691.0, 1688.0, 1688.0, 1691.0, 1688.0, 1693.0, 1693.0, 1690.0, 1692.0, 1692.0, 1698.0, 1693.0, 1693.0, 1697.0, 1697.0, 1701.0, 1696.0, 1699.0, 1696.0, 1694.0, 1693.0, 1696.0, 1695.0, 1700.0, 1696.0, 1700.0, 1692.0, 1693.0, 1693.0, 1694.0, 1693.0, 1693.0, 1693.0, 1695.0, 1692.0, 1692.0, 1695.0, 1695.0, 1693.0, 1693.0, 1695.0, 1697.0, 1701.0, 1697.0, 1696.0, 1699.0, 1698.0, 1699.0, 1703.0, 1696.0, 1697.0, 1698.0, 1696.0, 1697.0, 1700.0, 1700.0, 1700.0, 1698.0, 1697.0, 1698.0, 1702.0, 1693.0, 1695.0, 1701.0, 1698.0, 1694.0, 1695.0, 1696.0, 1698.0, 1697.0, 1695.0, 1697.0, 1701.0, 1700.0, 1705.0, 1699.0, 1698.0, 1700.0, 1700.0, 1700.0, 1700.0, 1700.0, 1699.0, 1701.0, 1701.0, 1700.0, 1698.0, 1700.0, 1703.0, 1699.0, 1698.0, 1699.0, 1698.0, 1699.0, 1699.0, 1703.0, 1703.0, 1701.0, 1698.0, 1703.0, 1702.0, 1701.0, 1701.0, 1705.0, 1711.0, 1710.0, 1706.0, 1702.0, 1694.0, 1693.0, 1695.0, 1698.0, 1698.0, 1713.0, 1716.0, 1706.0, 1705.0, 1701.0, 1706.0, 1707.0, 1704.0, 1701.0, 1701.0, 1707.0, 1703.0, 1703.0]
    },
    "slices": {}
  }
}