{
  "AcquisitionMatrixPE": 68,
  "AcquisitionNumber": 1,
  "AcquisitionTime": "12:26:19.670000",
  "BandwidthPerPixelPhaseEncode": 31.289,
  "BaseResolution": 68,
  "CoilString": "C:HEA;HEP",
  "ConversionSoftware": "dcm2niix",
  "ConversionSoftwareVersion": "v1.0.20190902",
  "DerivedVendorReportedEchoSpacing": 0.000470002,
  "DeviceSerialNumber": "35450",
  "DwellTime": 3e-06,
  "EchoTime": 0.023,
  "EffectiveEchoSpacing": 0.000470002,
  "FlipAngle": 76,
  "ImageOrientationPatientDICOM": [1, 0, 0, 0, 0.985703, -0.168489],
  "ImageType": [
    "ORIGINAL",
    "PRIMARY",
    "M",
    "ND",
    "MOSAIC"
],
  "ImagingFrequency": 123.219,
  "InPlanePhaseEncodingDirectionDICOM": "COL",
  "InstitutionAddress": "Univeristy_Ave._197_Newark_North_East_US_07102-1814",
  "InstitutionName": "RUBIC",
  "InstitutionalDepartmentName": "Department",
  "MRAcquisitionType": "2D",
  "MagneticFieldStrength": 3,
  "Manufacturer": "Siemens",
  "ManufacturersModelName": "TrioTim",
  "Modality": "MR",
  "PartialFourier": 1,
  "PatientPosition": "HFS",
  "PercentPhaseFOV": 100,
  "PhaseEncodingDirection": "j-",
  "PhaseEncodingSteps": 68,
  "PhaseResolution": 1,
  "PixelBandwidth": 2451,
  "ProcedureStepDescription": "Krekelberg_David",
  "ProtocolName": "ep2d_bold_RestEPI_4",
  "PulseSequenceDetails": "%SiemensSeq%_ep2d_bold",
  "ReceiveCoilName": "HeadMatrix",
  "ReconMatrixPE": 68,
  "RepetitionTime": 2,
  "SAR": 0.143839,
  "ScanOptions": "FS",
  "ScanningSequence": "EP",
  "SequenceName": "_epfid2d1_68",
  "SequenceVariant": "SK",
  "SeriesDescription": "ep2d_bold_RestEPI_4",
  "SeriesNumber": 10,
  "ShimSetting": [1937, -529, -7626, 969, 130, 36, -699, -34],
  "SliceThickness": 2.5,
  "SliceTiming": [1.9525, 1.8975, 1.84, 1.785, 1.73, 1.675, 1.6175, 1.5625, 1.5075, 1.45, 1.395, 1.34, 1.2825, 1.2275, 1.1725, 1.1175, 1.06, 1.005, 0.95, 0.8925, 0.8375, 0.7825, 0.725, 0.67, 0.615, 0.5575, 0.5025, 0.4475, 0.3925, 0.335, 0.28, 0.225, 0.1675, 0.1125, 0.0575, 0],
  "SoftwareVersions": "syngo_MR_B19",
  "SpacingBetweenSlices": 3,
  "StationName": "MRC35450",
  "TaskName": "rest",
  "TotalReadoutTime": 0.0314901,
  "TxRefAmp": 336.035,
  "dcmmeta_affine": [
    [-3.0, 0.0, 0.0, 101.32203674316406],
    [0.0, 2.9571104049682617, -0.5054681301116943, -72.46776580810547],
    [0.0, 0.5054681301116943, 2.9571104049682617, -51.48072814941406],
    [0.0, 0.0, 0.0, 1.0]
],
  "dcmmeta_reorient_transform": [
    [0.0, -1.0, 0.0, 67.0],
    [1.0, 0.0, 0.0, 0.0],
    [0.0, 0.0, 1.0, 0.0],
    [0.0, 0.0, 0.0, 1.0]
],
  "dcmmeta_shape": [68, 68, 36, 240],
  "dcmmeta_slice_dim": 2,
  "dcmmeta_version": 0.6,
  "global": {
    "const": {
      "AcquisitionMatrix": [68, 0, 0, 68],
      "AngioFlag": "N",
      "BitsAllocated": 16,
      "BitsStored": 12,
      "Columns": 408,
      "EchoNumbers": 1,
      "EchoTime": 23.0,
      "EchoTrainLength": 1,
      "FlipAngle": 76.0,
      "HighBit": 11,
      "ImageOrientationPatient": [1.0, 0.0, 0.0, 0.0, 0.98570346846845, -0.1684893831945],
      "ImagePositionPatient": [-611.32203388214, -628.36740121221, 68.315224805085],
      "ImageType": [
        "ORIGINAL",
        "PRIMARY",
        "M",
        "ND",
        "MOSAIC"
],
      "ImagedNucleus": "1H",
      "ImagingFrequency": 123.218571,
      "InPlanePhaseEncodingDirection": "COL",
      "MRAcquisitionType": "2D",
      "MagneticFieldStrength": 3.0,
      "Manufacturer": "SIEMENS",
      "ManufacturerModelName": "TrioTim",
      "Modality": "MR",
      "NumberOfAverages": 1.0,
      "NumberOfPhaseEncodingSteps": 68,
      "PercentPhaseFieldOfView": 100.0,
      "PercentSampling": 100.0,
      "PerformedProcedureStepStartTime": "111733.328000",
      "PhotometricInterpretation": "MONOCHROME2",
      "PixelBandwidth": 2451.0,
      "PixelRepresentation": 0,
      "PixelSpacing": [3.0, 3.0],
      "ProtocolName": "ep2d_bold_RestEPI_4",
      "RepetitionTime": 2000.0,
      "Rows": 408,
      "SAR": 0.14383931559477,
      "SamplesPerPixel": 1,
      "ScanOptions": "FS",
      "ScanningSequence": "EP",
      "SequenceName": "*epfid2d1_68",
      "SequenceVariant": "SK",
      "SeriesDescription": "ep2d_bold_RestEPI_4",
      "SeriesNumber": 10,
      "SeriesTime": "122707.906000",
      "SliceLocation": -38.534681810215,
      "SliceThickness": 2.5,
      "SmallestImagePixelValue": 0,
      "SoftwareVersions": "syngo MR B19",
      "SpacingBetweenSlices": 2.9999999659868,
      "SpecificCharacterSet": "ISO_IR 100",
      "StudyID": "1",
      "StudyTime": "111733.296000",
      "TransmitCoilName": "Body",
      "VariableFlipAngleFlag": "N",
      "WindowCenterWidthExplanation": "Algo1",
      "dBdt": 0.0},
    "slices": {}
  },
  "time": {
    "samples": {
      "AcquisitionNumber": [1, 2, 3, 4, 5, 6, 7, 8, 9, 10, 11, 12, 13, 14, 15, 16, 17, 18, 19, 20, 21, 22, 23, 24, 25, 26, 27, 28, 29, 30, 31, 32, 33, 34, 35, 36, 37, 38, 39, 40, 41, 42, 43, 44, 45, 46, 47, 48, 49, 50, 51, 52, 53, 54, 55, 56, 57, 58, 59, 60, 61, 62, 63, 64, 65, 66, 67, 68, 69, 70, 71, 72, 73, 74, 75, 76, 77, 78, 79, 80, 81, 82, 83, 84, 85, 86, 87, 88, 89, 90, 91, 92, 93, 94, 95, 96, 97, 98, 99, 100, 101, 102, 103, 104, 105, 106, 107, 108, 109, 110, 111, 112, 113, 114, 115, 116, 117, 118, 119, 120, 121, 122, 123, 124, 125, 126, 127, 128, 129, 130, 131, 132, 133, 134, 135, 136, 137, 138, 139, 140, 141, 142, 143, 144, 145, 146, 147, 148, 149, 150, 151, 152, 153, 154, 155, 156, 157, 158, 159, 160, 161, 162, 163, 164, 165, 166, 167, 168, 169, 170, 171, 172, 173, 174, 175, 176, 177, 178, 179, 180, 181, 182, 183, 184, 185, 186, 187, 188, 189, 190, 191, 192, 193, 194, 195, 196, 197, 198, 199, 200, 201, 202, 203, 204, 205, 206, 207, 208, 209, 210, 211, 212, 213, 214, 215, 216, 217, 218, 219, 220, 221, 222, 223, 224, 225, 226, 227, 228, 229, 230, 231, 232, 233, 234, 235, 236, 237, 238, 239, 240],
      "AcquisitionTime": ["122619.670000", "122621.677500", "122623.687500", "122625.695000", "122627.702500", "122629.710000", "122631.717500", "122633.727500", "122635.735000", "122637.742500", "122639.750000", "122641.757500", "122643.767500", "122645.775000", "122647.782500", "122649.790000", "122651.800000", "122653.807500", "122655.815000", "122657.822500", "122659.830000", "122701.840000", "122703.847500", "122705.855000", "122707.862500", "122709.870000", "122711.880000", "122713.887500", "122715.895000", "122717.902500", "122719.910000", "122721.920000", "122723.927500", "122725.935000", "122727.942500", "122729.952500", "122731.960000", "122733.967500", "122735.975000", "122737.982500", "122739.992500", "122742.000000", "122744.007500", "122746.015000", "122748.022500", "122750.032500", "122752.040000", "122754.047500", "122756.055000", "122758.065000", "122800.072500", "122802.080000", "122804.087500", "122806.095000", "122808.105000", "122810.112500", "122812.120000", "122814.127500", "122816.135000", "122818.145000", "122820.152500", "122822.160000", "122824.167500", "122826.177500", "122828.185000", "122830.192500", "122832.200000", "122834.207500", "122836.217500", "122838.225000", "122840.232500", "122842.240000", "122844.247500", "122846.257500", "122848.265000", "122850.272500", "122852.280000", "122854.287500", "122856.297500", "122858.305000", "122900.312500", "122902.320000", "122904.330000", "122906.337500", "122908.345000", "122910.352500", "122912.360000", "122914.370000", "122916.377500", "122918.385000", "122920.392500", "122922.400000", "122924.410000", "122926.417500", "122928.425000", "122930.432500", "122932.442500", "122934.450000", "122936.457500", "122938.465000", "122940.472500", "122942.482500", "122944.490000", "122946.497500", "122948.505000", "122950.512500", "122952.522500", "122954.530000", "122956.537500", "122958.545000", "123000.555000", "123002.562500", "123004.570000", "123006.577500", "123008.585000", "123010.595000", "123012.602500", "123014.610000", "123016.617500", "123018.625000", "123020.635000", "123022.642500", "123024.650000", "123026.657500", "123028.665000", "123030.675000", "123032.682500", "123034.690000", "123036.697500", "123038.707500", "123040.715000", "123042.722500", "123044.730000", "123046.737500", "123048.747500", "123050.755000", "123052.762500", "123054.770000", "123056.777500", "123058.787500", "123100.795000", "123102.802500", "123104.810000", "123106.820000", "123108.827500", "123110.835000", "123112.842500", "123114.850000", "123116.860000", "123118.867500", "123120.875000", "123122.882500", "123124.890000", "123126.900000", "123128.907500", "123130.915000", "123132.922500", "123134.932500", "123136.940000", "123138.947500", "123140.955000", "123142.962500", "123144.972500", "123146.980000", "123148.987500", "123150.995000", "123153.002500", "123155.012500", "123157.020000", "123159.027500", "123201.035000", "123203.042500", "123205.052500", "123207.060000", "123209.067500", "123211.075000", "123213.085000", "123215.092500", "123217.100000", "123219.107500", "123221.115000", "123223.125000", "123225.132500", "123227.140000", "123229.147500", "123231.155000", "123233.165000", "123235.172500", "123237.180000", "123239.187500", "123241.197500", "123243.205000", "123245.212500", "123247.220000", "123249.227500", "123251.237500", "123253.245000", "123255.252500", "123257.260000", "123259.267500", "123301.277500", "123303.285000", "123305.292500", "123307.300000", "123309.310000", "123311.317500", "123313.325000", "123315.332500", "123317.340000", "123319.350000", "123321.357500", "123323.365000", "123325.372500", "123327.380000", "123329.390000", "123331.397500", "123333.405000", "123335.412500", "123337.422500", "123339.430000", "123341.437500", "123343.445000", "123345.452500", "123347.462500", "123349.470000", "123351.477500", "123353.485000", "123355.492500", "123357.502500", "123359.510000", "123401.517500", "123403.525000", "123405.532500", "123407.542500", "123409.550000", "123411.557500", "123413.565000", "123415.575000", "123417.582500", "123419.590000"],
      "ContentTime": ["122707.906000", "122707.906000", "122707.921000", "122707.921000", "122707.921000", "122707.921000", "122707.921000", "122707.921000", "122707.921000", "122707.921000", "122707.937000", "122707.937000", "122707.937000", "122707.937000", "122707.937000", "122707.937000", "122707.937000", "122707.953000", "122707.953000", "122707.953000", "122707.953000", "122707.953000", "122707.953000", "122707.953000", "122747.906000", "122747.906000", "122747.906000", "122747.906000", "122747.921000", "122747.921000", "122747.921000", "122747.921000", "122747.921000", "122747.921000", "122747.921000", "122747.921000", "122747.937000", "122747.937000", "122747.937000", "122747.937000", "122747.937000", "122747.937000", "122747.937000", "122747.953000", "122827.906000", "122827.906000", "122827.906000", "122827.906000", "122827.921000", "122827.921000", "122827.921000", "122827.921000", "122827.921000", "122827.921000", "122827.921000", "122827.921000", "122827.937000", "122827.937000", "122827.937000", "122827.937000", "122827.937000", "122827.937000", "122827.937000", "122827.953000", "122907.906000", "122907.906000", "122907.906000", "122907.906000", "122907.921000", "122907.921000", "122907.921000", "122907.921000", "122907.921000", "122907.921000", "122907.921000", "122907.921000", "122907.937000", "122907.937000", "122907.937000", "122907.937000", "122907.937000", "122907.937000", "122907.937000", "122907.937000", "122947.906000", "122947.906000", "122947.906000", "122947.906000", "122947.921000", "122947.921000", "122947.921000", "122947.921000", "122947.921000", "122947.921000", "122947.921000", "122947.921000", "122947.937000", "122947.937000", "122947.937000", "122947.937000", "122947.937000", "122947.937000", "122947.937000", "122947.953000", "123027.906000", "123027.906000", "123027.906000", "123027.906000", "123027.906000", "123027.921000", "123027.921000", "123027.921000", "123027.921000", "123027.921000", "123027.921000", "123027.921000", "123027.937000", "123027.937000", "123027.937000", "123027.937000", "123027.937000", "123027.937000", "123027.937000", "123027.953000", "123107.906000", "123107.906000", "123107.906000", "123107.906000", "123107.921000", "123107.921000", "123107.921000", "123107.921000", "123107.921000", "123107.921000", "123107.921000", "123107.921000", "123107.937000", "123107.937000", "123107.937000", "123107.937000", "123107.937000", "123107.937000", "123107.937000", "123107.953000", "123147.906000", "123147.906000", "123147.906000", "123147.906000", "123147.906000", "123147.921000", "123147.921000", "123147.921000", "123147.921000", "123147.921000", "123147.921000", "123147.921000", "123147.937000", "123147.937000", "123147.937000", "123147.937000", "123147.937000", "123147.937000", "123147.937000", "123147.937000", "123227.906000", "123227.906000", "123227.906000", "123227.906000", "123227.921000", "123227.921000", "123227.921000", "123227.921000", "123227.921000", "123227.921000", "123227.921000", "123227.921000", "123227.937000", "123227.937000", "123227.937000", "123227.937000", "123227.937000", "123227.937000", "123227.937000", "123227.953000", "123247.906000", "123247.906000", "123247.906000", "123247.906000", "123247.921000", "123247.921000", "123247.921000", "123247.921000", "123247.921000", "123247.921000", "123327.906000", "123327.906000", "123327.906000", "123327.906000", "123327.921000", "123327.921000", "123327.921000", "123327.921000", "123327.921000", "123327.921000", "123327.921000", "123327.937000", "123327.937000", "123327.937000", "123327.937000", "123327.937000", "123327.937000", "123327.937000", "123327.937000", "123327.953000", "123407.906000", "123407.906000", "123407.906000", "123407.906000", "123407.906000", "123407.921000", "123407.921000", "123407.921000", "123407.921000", "123407.921000", "123407.937000", "123407.937000", "123407.937000", "123407.937000", "123407.953000", "123407.953000", "123407.953000", "123407.953000", "123407.953000", "123407.953000", "123419.375000", "123419.375000", "123419.390000", "123419.390000", "123419.390000", "123419.390000"],
      "InstanceCreationTime": ["122707.906000", "122707.906000", "122707.921000", "122707.921000", "122707.921000", "122707.921000", "122707.921000", "122707.921000", "122707.921000", "122707.921000", "122707.937000", "122707.937000", "122707.937000", "122707.937000", "122707.937000", "122707.937000", "122707.937000", "122707.953000", "122707.953000", "122707.953000", "122707.953000", "122707.953000", "122707.953000", "122707.953000", "122747.906000", "122747.906000", "122747.906000", "122747.906000", "122747.921000", "122747.921000", "122747.921000", "122747.921000", "122747.921000", "122747.921000", "122747.921000", "122747.921000", "122747.937000", "122747.937000", "122747.937000", "122747.937000", "122747.937000", "122747.937000", "122747.937000", "122747.953000", "122827.906000", "122827.906000", "122827.906000", "122827.906000", "122827.921000", "122827.921000", "122827.921000", "122827.921000", "122827.921000", "122827.921000", "122827.921000", "122827.921000", "122827.937000", "122827.937000", "122827.937000", "122827.937000", "122827.937000", "122827.937000", "122827.937000", "122827.953000", "122907.906000", "122907.906000", "122907.906000", "122907.906000", "122907.921000", "122907.921000", "122907.921000", "122907.921000", "122907.921000", "122907.921000", "122907.921000", "122907.921000", "122907.937000", "122907.937000", "122907.937000", "122907.937000", "122907.937000", "122907.937000", "122907.937000", "122907.937000", "122947.906000", "122947.906000", "122947.906000", "122947.906000", "122947.921000", "122947.921000", "122947.921000", "122947.921000", "122947.921000", "122947.921000", "122947.921000", "122947.921000", "122947.937000", "122947.937000", "122947.937000", "122947.937000", "122947.937000", "122947.937000", "122947.937000", "122947.953000", "123027.906000", "123027.906000", "123027.906000", "123027.906000", "123027.906000", "123027.921000", "123027.921000", "123027.921000", "123027.921000", "123027.921000", "123027.921000", "123027.921000", "123027.937000", "123027.937000", "123027.937000", "123027.937000", "123027.937000", "123027.937000", "123027.937000", "123027.953000", "123107.906000", "123107.906000", "123107.906000", "123107.906000", "123107.921000", "123107.921000", "123107.921000", "123107.921000", "123107.921000", "123107.921000", "123107.921000", "123107.921000", "123107.937000", "123107.937000", "123107.937000", "123107.937000", "123107.937000", "123107.937000", "123107.937000", "123107.953000", "123147.906000", "123147.906000", "123147.906000", "123147.906000", "123147.906000", "123147.921000", "123147.921000", "123147.921000", "123147.921000", "123147.921000", "123147.921000", "123147.921000", "123147.937000", "123147.937000", "123147.937000", "123147.937000", "123147.937000", "123147.937000", "123147.937000", "123147.937000", "123227.906000", "123227.906000", "123227.906000", "123227.906000", "123227.921000", "123227.921000", "123227.921000", "123227.921000", "123227.921000", "123227.921000", "123227.921000", "123227.921000", "123227.937000", "123227.937000", "123227.937000", "123227.937000", "123227.937000", "123227.937000", "123227.937000", "123227.953000", "123247.906000", "123247.906000", "123247.906000", "123247.906000", "123247.921000", "123247.921000", "123247.921000", "123247.921000", "123247.921000", "123247.921000", "123327.906000", "123327.906000", "123327.906000", "123327.906000", "123327.921000", "123327.921000", "123327.921000", "123327.921000", "123327.921000", "123327.921000", "123327.921000", "123327.937000", "123327.937000", "123327.937000", "123327.937000", "123327.937000", "123327.937000", "123327.937000", "123327.937000", "123327.953000", "123407.906000", "123407.906000", "123407.906000", "123407.906000", "123407.906000", "123407.921000", "123407.921000", "123407.921000", "123407.921000", "123407.921000", "123407.937000", "123407.937000", "123407.937000", "123407.937000", "123407.953000", "123407.953000", "123407.953000", "123407.953000", "123407.953000", "123407.953000", "123419.375000", "123419.375000", "123419.390000", "123419.390000", "123419.390000", "123419.390000"],
      "InstanceNumber": [1, 2, 3, 4, 5, 6, 7, 8, 9, 10, 11, 12, 13, 14, 15, 16, 17, 18, 19, 20, 21, 22, 23, 24, 25, 26, 27, 28, 29, 30, 31, 32, 33, 34, 35, 36, 37, 38, 39, 40, 41, 42, 43, 44, 45, 46, 47, 48, 49, 50, 51, 52, 53, 54, 55, 56, 57, 58, 59, 60, 61, 62, 63, 64, 65, 66, 67, 68, 69, 70, 71, 72, 73, 74, 75, 76, 77, 78, 79, 80, 81, 82, 83, 84, 85, 86, 87, 88, 89, 90, 91, 92, 93, 94, 95, 96, 97, 98, 99, 100, 101, 102, 103, 104, 105, 106, 107, 108, 109, 110, 111, 112, 113, 114, 115, 116, 117, 118, 119, 120, 121, 122, 123, 124, 125, 126, 127, 128, 129, 130, 131, 132, 133, 134, 135, 136, 137, 138, 139, 140, 141, 142, 143, 144, 145, 146, 147, 148, 149, 150, 151, 152, 153, 154, 155, 156, 157, 158, 159, 160, 161, 162, 163, 164, 165, 166, 167, 168, 169, 170, 171, 172, 173, 174, 175, 176, 177, 178, 179, 180, 181, 182, 183, 184, 185, 186, 187, 188, 189, 190, 191, 192, 193, 194, 195, 196, 197, 198, 199, 200, 201, 202, 203, 204, 205, 206, 207, 208, 209, 210, 211, 212, 213, 214, 215, 216, 217, 218, 219, 220, 221, 222, 223, 224, 225, 226, 227, 228, 229, 230, 231, 232, 233, 234, 235, 236, 237, 238, 239, 240],
      "LargestImagePixelValue": [1811, 1848, 1700, 1674, 1695, 1722, 1671, 1658, 1754, 1686, 1791, 1654, 1737, 1662, 1652, 1719, 1665, 1730, 1659, 1668, 1720, 1657, 1665, 1694, 1686, 1666, 1690, 1691, 1647, 1696, 1660, 1673, 1683, 1664, 1748, 1660, 1654, 1649, 1682, 1750, 1670, 1693, 1723, 1661, 1678, 1684, 1660, 1679, 1681, 1695, 1663, 1665, 1707, 1660, 1712, 1675, 1666, 1706, 1667, 1775, 1675, 1682, 1730, 1698, 1768, 1702, 1788, 1681, 1762, 1721, 1694, 1677, 1819, 1710, 1679, 1679, 1663, 1667, 1742, 1685, 1791, 1859, 1676, 1679, 1676, 1734, 1669, 1680, 1782, 1666, 1654, 1761, 1671, 1675, 1715, 1681, 1674, 1675, 1674, 1703, 1675, 1672, 1673, 1683, 1701, 1753, 1667, 1678, 1896, 1683, 1697, 1895, 1701, 1734, 1687, 1714, 1858, 1687, 1714, 1716, 1717, 1775, 1708, 1683, 1691, 1823, 1715, 1716, 1736, 1720, 1705, 1781, 1711, 1779, 1699, 1683, 1824, 1689, 1741, 1726, 1746, 1751, 1983, 1753, 1715, 1713, 1861, 1750, 1750, 1716, 1712, 1937, 1717, 1713, 1750, 1724, 1720, 1723, 1859, 1715, 1873, 1751, 2010, 2007, 1792, 1793, 1811, 1795, 1762, 1764, 1735, 1787, 1752, 1825, 1765, 1776, 1826, 1738, 1779, 1877, 1767, 1774, 1794, 1800, 1732, 1751, 1771, 1872, 1738, 1781, 1773, 1742, 1831, 1732, 1779, 1844, 1749, 1719, 1726, 1729, 1814, 1758, 1768, 1751, 1757, 1823, 1757, 1755, 1786, 1849, 1764, 1773, 1775, 1770, 1907, 1798, 1744, 1780, 1760, 1782, 1802, 1759, 1734, 1755, 1739, 1793, 1778, 1813, 1812, 1935, 1748, 1785, 1795, 1802, 1794, 1763, 1823, 1808, 1723, 1779],
      "WindowCenter": [797.0, 793.0, 792.0, 791.0, 792.0, 792.0, 791.0, 792.0, 793.0, 791.0, 791.0, 790.0, 791.0, 790.0, 791.0, 791.0, 790.0, 790.0, 790.0, 790.0, 791.0, 790.0, 791.0, 791.0, 792.0, 791.0, 792.0, 792.0, 791.0, 791.0, 791.0, 791.0, 791.0, 791.0, 792.0, 790.0, 791.0, 791.0, 792.0, 793.0, 792.0, 792.0, 792.0, 791.0, 792.0, 791.0, 791.0, 791.0, 792.0, 793.0, 792.0, 792.0, 792.0, 792.0, 792.0, 791.0, 792.0, 793.0, 791.0, 792.0, 791.0, 792.0, 793.0, 792.0, 793.0, 791.0, 793.0, 792.0, 793.0, 793.0, 792.0, 792.0, 793.0, 792.0, 791.0, 792.0, 793.0, 792.0, 793.0, 792.0, 794.0, 794.0, 792.0, 793.0, 794.0, 794.0, 794.0, 793.0, 793.0, 792.0, 792.0, 792.0, 793.0, 792.0, 793.0, 792.0, 792.0, 793.0, 792.0, 793.0, 793.0, 792.0, 792.0, 792.0, 792.0, 793.0, 791.0, 792.0, 794.0, 792.0, 792.0, 794.0, 792.0, 792.0, 793.0, 794.0, 794.0, 791.0, 793.0, 794.0, 793.0, 793.0, 792.0, 793.0, 794.0, 794.0, 793.0, 792.0, 792.0, 794.0, 793.0, 794.0, 793.0, 794.0, 794.0, 793.0, 794.0, 792.0, 792.0, 793.0, 793.0, 796.0, 796.0, 793.0, 793.0, 794.0, 794.0, 793.0, 792.0, 793.0, 793.0, 794.0, 792.0, 793.0, 793.0, 793.0, 794.0, 794.0, 795.0, 800.0, 799.0, 797.0, 802.0, 795.0, 792.0, 790.0, 792.0, 792.0, 793.0, 795.0, 795.0, 795.0, 795.0, 795.0, 795.0, 794.0, 794.0, 795.0, 794.0, 795.0, 794.0, 794.0, 794.0, 794.0, 793.0, 793.0, 793.0, 795.0, 794.0, 795.0, 795.0, 794.0, 795.0, 794.0, 794.0, 796.0, 794.0, 794.0, 796.0, 794.0, 796.0, 795.0, 795.0, 795.0, 795.0, 795.0, 795.0, 795.0, 794.0, 795.0, 795.0, 796.0, 796.0, 795.0, 795.0, 792.0, 792.0, 793.0, 794.0, 795.0, 795.0, 796.0, 795.0, 795.0, 796.0, 798.0, 798.0, 800.0, 796.0, 796.0, 795.0, 794.0, 796.0, 794.0, 794.0, 795.0, 795.0, 795.0, 795.0, 795.0],
      "WindowWidth": [1703.0, 1692.0, 1688.0, 1685.0, 1688.0, 1687.0, 1684.0, 1687.0, 1690.0, 1686.0, 1686.0, 1681.0, 1684.0, 1682.0, 1684.0, 1685.0, 1682.0, 1684.0, 1683.0, 1682.0, 1685.0, 1684.0, 1686.0, 1687.0, 1687.0, 1686.0, 1687.0, 1687.0, 1685.0, 1686.0, 1685.0, 1686.0, 1686.0, 1686.0, 1689.0, 1682.0, 1685.0, 1685.0, 1688.0, 1690.0, 1687.0, 1689.0, 1687.0, 1686.0, 1687.0, 1686.0, 1686.0, 1686.0, 1688.0, 1691.0, 1687.0, 1687.0, 1688.0, 1687.0, 1688.0, 1686.0, 1687.0, 1690.0, 1686.0, 1688.0, 1685.0, 1686.0, 1691.0, 1689.0, 1689.0, 1686.0, 1690.0, 1689.0, 1691.0, 1689.0, 1686.0, 1689.0, 1692.0, 1688.0, 1686.0, 1687.0, 1689.0, 1688.0, 1690.0, 1688.0, 1693.0, 1693.0, 1687.0, 1690.0, 1693.0, 1694.0, 1691.0, 1689.0, 1691.0, 1688.0, 1687.0, 1689.0, 1689.0, 1688.0, 1690.0, 1688.0, 1689.0, 1691.0, 1688.0, 1690.0, 1690.0, 1687.0, 1689.0, 1688.0, 1689.0, 1691.0, 1686.0, 1688.0, 1694.0, 1687.0, 1689.0, 1693.0, 1688.0, 1688.0, 1692.0, 1694.0, 1694.0, 1686.0, 1690.0, 1693.0, 1690.0, 1692.0, 1688.0, 1691.0, 1694.0, 1696.0, 1690.0, 1687.0, 1689.0, 1693.0, 1691.0, 1693.0, 1690.0, 1695.0, 1693.0, 1691.0, 1693.0, 1687.0, 1688.0, 1690.0, 1692.0, 1699.0, 1699.0, 1691.0, 1689.0, 1692.0, 1695.0, 1691.0, 1690.0, 1691.0, 1690.0, 1695.0, 1690.0, 1690.0, 1692.0, 1692.0, 1693.0, 1693.0, 1697.0, 1708.0, 1711.0, 1704.0, 1718.0, 1698.0, 1690.0, 1684.0, 1689.0, 1689.0, 1691.0, 1698.0, 1698.0, 1697.0, 1698.0, 1697.0, 1697.0, 1696.0, 1696.0, 1698.0, 1694.0, 1697.0, 1694.0, 1694.0, 1695.0, 1695.0, 1691.0, 1693.0, 1693.0, 1697.0, 1695.0, 1696.0, 1697.0, 1695.0, 1696.0, 1695.0, 1695.0, 1700.0, 1694.0, 1695.0, 1698.0, 1695.0, 1699.0, 1697.0, 1696.0, 1697.0, 1697.0, 1697.0, 1696.0, 1696.0, 1695.0, 1697.0, 1697.0, 1700.0, 1701.0, 1697.0, 1696.0, 1690.0, 1689.0, 1692.0, 1693.0, 1699.0, 1698.0, 1699.0, 1698.0, 1697.0, 1700.0, 1703.0, 1705.0, 1711.0, 1702.0, 1702.0, 1696.0, 1694.0, 1699.0, 1696.0, 1696.0, 1699.0, 1699.0, 1697.0, 1698.0, 1698.0]
    },
    "slices": {}
  }
}