{
  "AcquisitionMatrixPE": 68,
  "AcquisitionNumber": 1,
  "AcquisitionTime": "11:49:51.047500",
  "BandwidthPerPixelPhaseEncode": 31.289,
  "BaseResolution": 68,
  "CoilString": "C:HEA;HEP",
  "ConversionSoftware": "dcm2niix",
  "ConversionSoftwareVersion": "v1.0.20190902",
  "DerivedVendorReportedEchoSpacing": 0.000470002,
  "DeviceSerialNumber": "35450",
  "DwellTime": 3e-06,
  "EchoTime": 0.023,
  "EffectiveEchoSpacing": 0.000470002,
  "FlipAngle": 76,
  "ImageOrientationPatientDICOM": [1, 0, 0, 0, 0.985703, -0.168489],
  "ImageType": [
    "ORIGINAL",
    "PRIMARY",
    "M",
    "ND",
    "MOSAIC"
],
  "ImagingFrequency": 123.218,
  "InPlanePhaseEncodingDirectionDICOM": "COL",
  "InstitutionAddress": "Univeristy_Ave._197_Newark_North_East_US_07102-1814",
  "InstitutionName": "RUBIC",
  "InstitutionalDepartmentName": "Department",
  "MRAcquisitionType": "2D",
  "MagneticFieldStrength": 3,
  "Manufacturer": "Siemens",
  "ManufacturersModelName": "TrioTim",
  "Modality": "MR",
  "PartialFourier": 1,
  "PatientPosition": "HFS",
  "PercentPhaseFOV": 100,
  "PhaseEncodingDirection": "j-",
  "PhaseEncodingSteps": 68,
  "PhaseResolution": 1,
  "PixelBandwidth": 2451,
  "ProcedureStepDescription": "Krekelberg_David",
  "ProtocolName": "ep2d_bold_RestEPI_1",
  "PulseSequenceDetails": "%SiemensSeq%_ep2d_bold",
  "ReceiveCoilName": "HeadMatrix",
  "ReconMatrixPE": 68,
  "RepetitionTime": 2,
  "SAR": 0.143839,
  "ScanOptions": "FS",
  "ScanningSequence": "EP",
  "SequenceName": "_epfid2d1_68",
  "SequenceVariant": "SK",
  "SeriesDescription": "ep2d_bold_RestEPI_1",
  "SeriesNumber": 6,
  "ShimSetting": [1937, -529, -7626, 969, 130, 36, -699, -34],
  "SliceThickness": 2.5,
  "SliceTiming": [1.9525, 1.8975, 1.8425, 1.785, 1.73, 1.675, 1.6175, 1.5625, 1.5075, 1.45, 1.395, 1.34, 1.2825, 1.2275, 1.1725, 1.1175, 1.06, 1.005, 0.95, 0.8925, 0.8375, 0.7825, 0.725, 0.67, 0.615, 0.56, 0.5025, 0.4475, 0.3925, 0.335, 0.28, 0.225, 0.1675, 0.1125, 0.0575, 0],
  "SoftwareVersions": "syngo_MR_B19",
  "SpacingBetweenSlices": 3,
  "StationName": "MRC35450",
  "TaskName": "rest",
  "TotalReadoutTime": 0.0314901,
  "TxRefAmp": 336.035,
  "dcmmeta_affine": [
    [-3.0, 0.0, 0.0, 101.32203674316406],
    [0.0, 2.9571104049682617, -0.5054681301116943, -72.46776580810547],
    [0.0, 0.5054681301116943, 2.9571104049682617, -51.48072814941406],
    [0.0, 0.0, 0.0, 1.0]
],
  "dcmmeta_reorient_transform": [
    [0.0, -1.0, 0.0, 67.0],
    [1.0, 0.0, 0.0, 0.0],
    [0.0, 0.0, 1.0, 0.0],
    [0.0, 0.0, 0.0, 1.0]
],
  "dcmmeta_shape": [68, 68, 36, 240],
  "dcmmeta_slice_dim": 2,
  "dcmmeta_version": 0.6,
  "global": {
    "const": {
      "AcquisitionMatrix": [68, 0, 0, 68],
      "AngioFlag": "N",
      "BitsAllocated": 16,
      "BitsStored": 12,
      "Columns": 408,
      "EchoNumbers": 1,
      "EchoTime": 23.0,
      "EchoTrainLength": 1,
      "FlipAngle": 76.0,
      "HighBit": 11,
      "ImageOrientationPatient": [1.0, 0.0, 0.0, 0.0, 0.98570346846845, -0.1684893831945],
      "ImagePositionPatient": [-611.32203388214, -628.36740121221, 68.315224805085],
      "ImageType": [
        "ORIGINAL",
        "PRIMARY",
        "M",
        "ND",
        "MOSAIC"
],
      "ImagedNucleus": "1H",
      "ImagingFrequency": 123.218498,
      "InPlanePhaseEncodingDirection": "COL",
      "MRAcquisitionType": "2D",
      "MagneticFieldStrength": 3.0,
      "Manufacturer": "SIEMENS",
      "ManufacturerModelName": "TrioTim",
      "Modality": "MR",
      "NumberOfAverages": 1.0,
      "NumberOfPhaseEncodingSteps": 68,
      "PercentPhaseFieldOfView": 100.0,
      "PercentSampling": 100.0,
      "PerformedProcedureStepStartTime": "111733.328000",
      "PhotometricInterpretation": "MONOCHROME2",
      "PixelBandwidth": 2451.0,
      "PixelRepresentation": 0,
      "PixelSpacing": [3.0, 3.0],
      "ProtocolName": "ep2d_bold_RestEPI_1",
      "RepetitionTime": 2000.0,
      "Rows": 408,
      "SAR": 0.14383931559477,
      "SamplesPerPixel": 1,
      "ScanOptions": "FS",
      "ScanningSequence": "EP",
      "SequenceName": "*epfid2d1_68",
      "SequenceVariant": "SK",
      "SeriesDescription": "ep2d_bold_RestEPI_1",
      "SeriesNumber": 6,
      "SeriesTime": "115035.296000",
      "SliceLocation": -38.534681810215,
      "SliceThickness": 2.5,
      "SmallestImagePixelValue": 0,
      "SoftwareVersions": "syngo MR B19",
      "SpacingBetweenSlices": 2.9999999659868,
      "SpecificCharacterSet": "ISO_IR 100",
      "StudyID": "1",
      "StudyTime": "111733.296000",
      "TransmitCoilName": "Body",
      "VariableFlipAngleFlag": "N",
      "WindowCenterWidthExplanation": "Algo1",
      "dBdt": 0.0},
    "slices": {}
  },
  "time": {
    "samples": {
      "AcquisitionNumber": [1, 2, 3, 4, 5, 6, 7, 8, 9, 10, 11, 12, 13, 14, 15, 16, 17, 18, 19, 20, 21, 22, 23, 24, 25, 26, 27, 28, 29, 30, 31, 32, 33, 34, 35, 36, 37, 38, 39, 40, 41, 42, 43, 44, 45, 46, 47, 48, 49, 50, 51, 52, 53, 54, 55, 56, 57, 58, 59, 60, 61, 62, 63, 64, 65, 66, 67, 68, 69, 70, 71, 72, 73, 74, 75, 76, 77, 78, 79, 80, 81, 82, 83, 84, 85, 86, 87, 88, 89, 90, 91, 92, 93, 94, 95, 96, 97, 98, 99, 100, 101, 102, 103, 104, 105, 106, 107, 108, 109, 110, 111, 112, 113, 114, 115, 116, 117, 118, 119, 120, 121, 122, 123, 124, 125, 126, 127, 128, 129, 130, 131, 132, 133, 134, 135, 136, 137, 138, 139, 140, 141, 142, 143, 144, 145, 146, 147, 148, 149, 150, 151, 152, 153, 154, 155, 156, 157, 158, 159, 160, 161, 162, 163, 164, 165, 166, 167, 168, 169, 170, 171, 172, 173, 174, 175, 176, 177, 178, 179, 180, 181, 182, 183, 184, 185, 186, 187, 188, 189, 190, 191, 192, 193, 194, 195, 196, 197, 198, 199, 200, 201, 202, 203, 204, 205, 206, 207, 208, 209, 210, 211, 212, 213, 214, 215, 216, 217, 218, 219, 220, 221, 222, 223, 224, 225, 226, 227, 228, 229, 230, 231, 232, 233, 234, 235, 236, 237, 238, 239, 240],
      "AcquisitionTime": ["114951.047500", "114953.055000", "114955.065000", "114957.072500", "114959.080000", "115001.087500", "115003.095000", "115005.105000", "115007.112500", "115009.120000", "115011.127500", "115013.135000", "115015.145000", "115017.152500", "115019.160000", "115021.167500", "115023.177500", "115025.185000", "115027.192500", "115029.200000", "115031.207500", "115033.217500", "115035.225000", "115037.232500", "115039.240000", "115041.247500", "115043.257500", "115045.265000", "115047.272500", "115049.280000", "115051.290000", "115053.297500", "115055.305000", "115057.312500", "115059.320000", "115101.330000", "115103.337500", "115105.345000", "115107.352500", "115109.360000", "115111.370000", "115113.377500", "115115.385000", "115117.392500", "115119.400000", "115121.410000", "115123.417500", "115125.425000", "115127.432500", "115129.442500", "115131.450000", "115133.457500", "115135.465000", "115137.472500", "115139.482500", "115141.490000", "115143.497500", "115145.505000", "115147.512500", "115149.522500", "115151.530000", "115153.537500", "115155.545000", "115157.555000", "115159.562500", "115201.570000", "115203.577500", "115205.585000", "115207.595000", "115209.602500", "115211.610000", "115213.617500", "115215.625000", "115217.635000", "115219.642500", "115221.650000", "115223.657500", "115225.667500", "115227.675000", "115229.682500", "115231.690000", "115233.697500", "115235.707500", "115237.715000", "115239.722500", "115241.730000", "115243.737500", "115245.747500", "115247.755000", "115249.762500", "115251.770000", "115253.780000", "115255.787500", "115257.795000", "115259.802500", "115301.810000", "115303.820000", "115305.827500", "115307.835000", "115309.842500", "115311.850000", "115313.860000", "115315.867500", "115317.875000", "115319.882500", "115321.890000", "115323.900000", "115325.907500", "115327.915000", "115329.922500", "115331.932500", "115333.940000", "115335.947500", "115337.955000", "115339.962500", "115341.972500", "115343.980000", "115345.987500", "115347.995000", "115350.002500", "115352.012500", "115354.020000", "115356.027500", "115358.035000", "115400.045000", "115402.052500", "115404.060000", "115406.067500", "115408.075000", "115410.085000", "115412.092500", "115414.100000", "115416.107500", "115418.115000", "115420.125000", "115422.132500", "115424.140000", "115426.147500", "115428.157500", "115430.165000", "115432.172500", "115434.180000", "115436.187500", "115438.197500", "115440.205000", "115442.212500", "115444.220000", "115446.227500", "115448.237500", "115450.245000", "115452.252500", "115454.260000", "115456.267500", "115458.277500", "115500.285000", "115502.292500", "115504.300000", "115506.310000", "115508.317500", "115510.325000", "115512.332500", "115514.340000", "115516.350000", "115518.357500", "115520.365000", "115522.372500", "115524.380000", "115526.390000", "115528.397500", "115530.405000", "115532.412500", "115534.422500", "115536.430000", "115538.437500", "115540.445000", "115542.452500", "115544.462500", "115546.470000", "115548.477500", "115550.485000", "115552.492500", "115554.502500", "115556.510000", "115558.517500", "115600.525000", "115602.535000", "115604.542500", "115606.550000", "115608.557500", "115610.565000", "115612.575000", "115614.582500", "115616.590000", "115618.597500", "115620.605000", "115622.615000", "115624.622500", "115626.630000", "115628.637500", "115630.645000", "115632.655000", "115634.662500", "115636.670000", "115638.677500", "115640.687500", "115642.695000", "115644.702500", "115646.710000", "115648.717500", "115650.727500", "115652.735000", "115654.742500", "115656.750000", "115658.757500", "115700.767500", "115702.775000", "115704.782500", "115706.790000", "115708.800000", "115710.807500", "115712.815000", "115714.822500", "115716.830000", "115718.840000", "115720.847500", "115722.855000", "115724.862500", "115726.870000", "115728.880000", "115730.887500", "115732.895000", "115734.902500", "115736.912500", "115738.920000", "115740.927500", "115742.935000", "115744.942500", "115746.952500", "115748.960000", "115750.967500"],
      "ContentTime": ["115035.296000", "115035.296000", "115035.312000", "115035.312000", "115035.312000", "115035.312000", "115035.312000", "115035.312000", "115035.312000", "115035.312000", "115035.328000", "115035.328000", "115035.328000", "115035.328000", "115035.328000", "115035.328000", "115035.328000", "115035.343000", "115035.343000", "115035.343000", "115035.343000", "115035.343000", "115115.296000", "115115.296000", "115115.296000", "115115.296000", "115115.296000", "115115.312000", "115115.312000", "115115.312000", "115115.312000", "115115.312000", "115115.312000", "115115.312000", "115115.328000", "115115.328000", "115115.328000", "115115.328000", "115115.328000", "115115.328000", "115115.328000", "115115.343000", "115155.296000", "115155.296000", "115155.296000", "115155.296000", "115155.312000", "115155.312000", "115155.312000", "115155.312000", "115155.312000", "115155.312000", "115155.312000", "115155.312000", "115155.328000", "115155.328000", "115155.328000", "115155.328000", "115155.328000", "115155.343000", "115155.343000", "115155.343000", "115235.296000", "115235.296000", "115235.296000", "115235.296000", "115235.312000", "115235.312000", "115235.312000", "115235.312000", "115235.312000", "115235.312000", "115235.312000", "115235.312000", "115235.328000", "115235.328000", "115235.328000", "115235.328000", "115235.328000", "115235.328000", "115235.328000", "115235.328000", "115255.296000", "115255.296000", "115255.296000", "115255.296000", "115255.312000", "115255.312000", "115255.312000", "115255.312000", "115255.312000", "115255.312000", "115335.296000", "115335.296000", "115335.296000", "115335.296000", "115335.312000", "115335.312000", "115335.312000", "115335.312000", "115335.312000", "115335.312000", "115335.312000", "115335.328000", "115335.328000", "115335.328000", "115335.328000", "115335.328000", "115335.328000", "115335.328000", "115335.343000", "115335.343000", "115415.296000", "115415.296000", "115415.296000", "115415.296000", "115415.296000", "115415.312000", "115415.312000", "115415.312000", "115415.312000", "115415.312000", "115415.312000", "115415.312000", "115415.328000", "115415.328000", "115415.328000", "115415.328000", "115415.328000", "115415.328000", "115415.328000", "115415.343000", "115455.296000", "115455.296000", "115455.296000", "115455.296000", "115455.312000", "115455.312000", "115455.312000", "115455.312000", "115455.312000", "115455.312000", "115455.312000", "115455.312000", "115455.328000", "115455.328000", "115455.328000", "115455.328000", "115455.328000", "115455.328000", "115455.328000", "115455.343000", "115535.296000", "115535.296000", "115535.296000", "115535.296000", "115535.312000", "115535.312000", "115535.312000", "115535.312000", "115535.312000", "115535.312000", "115535.312000", "115535.328000", "115535.328000", "115535.328000", "115535.328000", "115535.328000", "115535.328000", "115535.328000", "115535.328000", "115535.343000", "115615.296000", "115615.296000", "115615.296000", "115615.296000", "115615.312000", "115615.312000", "115615.312000", "115615.312000", "115615.312000", "115615.312000", "115615.312000", "115615.328000", "115615.328000", "115615.328000", "115615.328000", "115615.328000", "115615.328000", "115615.343000", "115615.343000", "115615.343000", "115655.296000", "115655.296000", "115655.296000", "115655.296000", "115655.296000", "115655.312000", "115655.312000", "115655.312000", "115655.312000", "115655.312000", "115655.312000", "115655.312000", "115655.328000", "115655.328000", "115655.328000", "115655.328000", "115655.328000", "115655.328000", "115655.328000", "115655.343000", "115735.296000", "115735.296000", "115735.296000", "115735.296000", "115735.312000", "115735.312000", "115735.312000", "115735.312000", "115735.312000", "115735.312000", "115735.312000", "115735.312000", "115735.328000", "115735.328000", "115735.328000", "115735.328000", "115735.328000", "115735.328000", "115735.328000", "115735.343000", "115749.843000", "115749.843000", "115749.859000", "115749.859000", "115749.859000", "115749.859000", "115749.859000", "115749.859000"],
      "InstanceCreationTime": ["115035.296000", "115035.296000", "115035.312000", "115035.312000", "115035.312000", "115035.312000", "115035.312000", "115035.312000", "115035.312000", "115035.312000", "115035.328000", "115035.328000", "115035.328000", "115035.328000", "115035.328000", "115035.328000", "115035.328000", "115035.343000", "115035.343000", "115035.343000", "115035.343000", "115035.343000", "115115.296000", "115115.296000", "115115.296000", "115115.296000", "115115.296000", "115115.312000", "115115.312000", "115115.312000", "115115.312000", "115115.312000", "115115.312000", "115115.312000", "115115.328000", "115115.328000", "115115.328000", "115115.328000", "115115.328000", "115115.328000", "115115.328000", "115115.343000", "115155.296000", "115155.296000", "115155.296000", "115155.296000", "115155.312000", "115155.312000", "115155.312000", "115155.312000", "115155.312000", "115155.312000", "115155.312000", "115155.312000", "115155.328000", "115155.328000", "115155.328000", "115155.328000", "115155.328000", "115155.343000", "115155.343000", "115155.343000", "115235.296000", "115235.296000", "115235.296000", "115235.296000", "115235.312000", "115235.312000", "115235.312000", "115235.312000", "115235.312000", "115235.312000", "115235.312000", "115235.312000", "115235.328000", "115235.328000", "115235.328000", "115235.328000", "115235.328000", "115235.328000", "115235.328000", "115235.328000", "115255.296000", "115255.296000", "115255.296000", "115255.296000", "115255.312000", "115255.312000", "115255.312000", "115255.312000", "115255.312000", "115255.312000", "115335.296000", "115335.296000", "115335.296000", "115335.296000", "115335.312000", "115335.312000", "115335.312000", "115335.312000", "115335.312000", "115335.312000", "115335.312000", "115335.328000", "115335.328000", "115335.328000", "115335.328000", "115335.328000", "115335.328000", "115335.328000", "115335.343000", "115335.343000", "115415.296000", "115415.296000", "115415.296000", "115415.296000", "115415.296000", "115415.312000", "115415.312000", "115415.312000", "115415.312000", "115415.312000", "115415.312000", "115415.312000", "115415.328000", "115415.328000", "115415.328000", "115415.328000", "115415.328000", "115415.328000", "115415.328000", "115415.343000", "115455.296000", "115455.296000", "115455.296000", "115455.296000", "115455.312000", "115455.312000", "115455.312000", "115455.312000", "115455.312000", "115455.312000", "115455.312000", "115455.312000", "115455.328000", "115455.328000", "115455.328000", "115455.328000", "115455.328000", "115455.328000", "115455.328000", "115455.343000", "115535.296000", "115535.296000", "115535.296000", "115535.296000", "115535.312000", "115535.312000", "115535.312000", "115535.312000", "115535.312000", "115535.312000", "115535.312000", "115535.328000", "115535.328000", "115535.328000", "115535.328000", "115535.328000", "115535.328000", "115535.328000", "115535.328000", "115535.343000", "115615.296000", "115615.296000", "115615.296000", "115615.296000", "115615.312000", "115615.312000", "115615.312000", "115615.312000", "115615.312000", "115615.312000", "115615.312000", "115615.328000", "115615.328000", "115615.328000", "115615.328000", "115615.328000", "115615.328000", "115615.343000", "115615.343000", "115615.343000", "115655.296000", "115655.296000", "115655.296000", "115655.296000", "115655.296000", "115655.312000", "115655.312000", "115655.312000", "115655.312000", "115655.312000", "115655.312000", "115655.312000", "115655.328000", "115655.328000", "115655.328000", "115655.328000", "115655.328000", "115655.328000", "115655.328000", "115655.343000", "115735.296000", "115735.296000", "115735.296000", "115735.296000", "115735.312000", "115735.312000", "115735.312000", "115735.312000", "115735.312000", "115735.312000", "115735.312000", "115735.312000", "115735.328000", "115735.328000", "115735.328000", "115735.328000", "115735.328000", "115735.328000", "115735.328000", "115735.343000", "115749.843000", "115749.843000", "115749.859000", "115749.859000", "115749.859000", "115749.859000", "115749.859000", "115749.859000"],
      "InstanceNumber": [1, 2, 3, 4, 5, 6, 7, 8, 9, 10, 11, 12, 13, 14, 15, 16, 17, 18, 19, 20, 21, 22, 23, 24, 25, 26, 27, 28, 29, 30, 31, 32, 33, 34, 35, 36, 37, 38, 39, 40, 41, 42, 43, 44, 45, 46, 47, 48, 49, 50, 51, 52, 53, 54, 55, 56, 57, 58, 59, 60, 61, 62, 63, 64, 65, 66, 67, 68, 69, 70, 71, 72, 73, 74, 75, 76, 77, 78, 79, 80, 81, 82, 83, 84, 85, 86, 87, 88, 89, 90, 91, 92, 93, 94, 95, 96, 97, 98, 99, 100, 101, 102, 103, 104, 105, 106, 107, 108, 109, 110, 111, 112, 113, 114, 115, 116, 117, 118, 119, 120, 121, 122, 123, 124, 125, 126, 127, 128, 129, 130, 131, 132, 133, 134, 135, 136, 137, 138, 139, 140, 141, 142, 143, 144, 145, 146, 147, 148, 149, 150, 151, 152, 153, 154, 155, 156, 157, 158, 159, 160, 161, 162, 163, 164, 165, 166, 167, 168, 169, 170, 171, 172, 173, 174, 175, 176, 177, 178, 179, 180, 181, 182, 183, 184, 185, 186, 187, 188, 189, 190, 191, 192, 193, 194, 195, 196, 197, 198, 199, 200, 201, 202, 203, 204, 205, 206, 207, 208, 209, 210, 211, 212, 213, 214, 215, 216, 217, 218, 219, 220, 221, 222, 223, 224, 225, 226, 227, 228, 229, 230, 231, 232, 233, 234, 235, 236, 237, 238, 239, 240],
      "LargestImagePixelValue": [1857, 1752, 1740, 1738, 1734, 1795, 1719, 1675, 1789, 1744, 1698, 1725, 1768, 1700, 1730, 1755, 1715, 1721, 1731, 1820, 1714, 1700, 1737, 1704, 1712, 1709, 1708, 1710, 1738, 1729, 1798, 1705, 1714, 1713, 1715, 1710, 1691, 1700, 1714, 1768, 1841, 1712, 1729, 1729, 1839, 1719, 1662, 1794, 1698, 1708, 1705, 1736, 1751, 1688, 1803, 1700, 1713, 1694, 1693, 1701, 1831, 1734, 1811, 1680, 1731, 1873, 1731, 1730, 1669, 1688, 1680, 1717, 1791, 1731, 1821, 1708, 1770, 1796, 1798, 1730, 1701, 1705, 1686, 1722, 1864, 1737, 1699, 1689, 1755, 1729, 1761, 1745, 1850, 1705, 1740, 1777, 1778, 1695, 1880, 1690, 1685, 1708, 1752, 1714, 1699, 1716, 1695, 1696, 1771, 1725, 1690, 1762, 1721, 1975, 1832, 1738, 1760, 1735, 1719, 1703, 1726, 1802, 1729, 1832, 1747, 1769, 1855, 1727, 1854, 1843, 1734, 1741, 1853, 1769, 1731, 1801, 1760, 1748, 1748, 1726, 1935, 1726, 1747, 1753, 1722, 1718, 1713, 1723, 1726, 1910, 1738, 1780, 1739, 1795, 1755, 1741, 1829, 1732, 1756, 1758, 1857, 1747, 1773, 1817, 1723, 1726, 1757, 1763, 1752, 1816, 1745, 1754, 1778, 1912, 1743, 1773, 1998, 1737, 1730, 1775, 1743, 1800, 1820, 1727, 1852, 1770, 1758, 1849, 1927, 1776, 1924, 1774, 1737, 1960, 1730, 1758, 1784, 1762, 1759, 1747, 1775, 1821, 1750, 1860, 1870, 1763, 1902, 1767, 1760, 1751, 1769, 1876, 1766, 1771, 1907, 1744, 1795, 1936, 1786, 1921, 1737, 1960, 1757, 1774, 1766, 1916, 1755, 1752, 1729, 1732, 1966, 1886, 1764, 1968, 1756, 1789, 1788, 2002, 1796, 1759],
      "WindowCenter": [794.0, 790.0, 789.0, 789.0, 789.0, 790.0, 789.0, 788.0, 788.0, 789.0, 789.0, 790.0, 790.0, 789.0, 790.0, 790.0, 788.0, 789.0, 789.0, 789.0, 789.0, 788.0, 789.0, 789.0, 789.0, 790.0, 789.0, 789.0, 790.0, 790.0, 790.0, 790.0, 789.0, 790.0, 790.0, 790.0, 790.0, 790.0, 790.0, 791.0, 791.0, 790.0, 790.0, 791.0, 792.0, 791.0, 790.0, 792.0, 790.0, 791.0, 792.0, 791.0, 791.0, 792.0, 792.0, 791.0, 791.0, 791.0, 791.0, 792.0, 794.0, 792.0, 792.0, 791.0, 792.0, 793.0, 792.0, 792.0, 791.0, 792.0, 793.0, 792.0, 794.0, 793.0, 793.0, 792.0, 792.0, 794.0, 794.0, 792.0, 792.0, 793.0, 793.0, 792.0, 793.0, 792.0, 791.0, 793.0, 793.0, 792.0, 793.0, 793.0, 793.0, 793.0, 792.0, 792.0, 792.0, 792.0, 793.0, 791.0, 791.0, 791.0, 792.0, 792.0, 793.0, 793.0, 792.0, 792.0, 793.0, 792.0, 792.0, 793.0, 793.0, 802.0, 797.0, 792.0, 793.0, 793.0, 794.0, 794.0, 794.0, 794.0, 793.0, 794.0, 794.0, 794.0, 794.0, 794.0, 795.0, 795.0, 793.0, 793.0, 794.0, 793.0, 793.0, 794.0, 794.0, 793.0, 794.0, 794.0, 794.0, 793.0, 792.0, 792.0, 793.0, 793.0, 793.0, 794.0, 794.0, 794.0, 793.0, 793.0, 795.0, 794.0, 793.0, 793.0, 794.0, 795.0, 795.0, 795.0, 795.0, 794.0, 794.0, 794.0, 794.0, 793.0, 794.0, 796.0, 795.0, 796.0, 795.0, 795.0, 795.0, 796.0, 795.0, 795.0, 795.0, 794.0, 793.0, 794.0, 794.0, 795.0, 796.0, 794.0, 795.0, 795.0, 795.0, 796.0, 796.0, 795.0, 794.0, 794.0, 794.0, 796.0, 794.0, 794.0, 796.0, 795.0, 795.0, 795.0, 795.0, 796.0, 796.0, 796.0, 796.0, 795.0, 796.0, 794.0, 794.0, 795.0, 795.0, 797.0, 795.0, 796.0, 797.0, 796.0, 797.0, 798.0, 796.0, 797.0, 796.0, 797.0, 796.0, 796.0, 796.0, 798.0, 796.0, 796.0, 796.0, 796.0, 798.0, 797.0, 796.0, 796.0, 796.0, 796.0, 796.0, 798.0, 796.0, 795.0],
      "WindowWidth": [1696.0, 1685.0, 1681.0, 1682.0, 1682.0, 1683.0, 1682.0, 1678.0, 1680.0, 1680.0, 1682.0, 1684.0, 1684.0, 1681.0, 1684.0, 1683.0, 1680.0, 1681.0, 1681.0, 1683.0, 1681.0, 1680.0, 1681.0, 1680.0, 1681.0, 1682.0, 1681.0, 1681.0, 1683.0, 1683.0, 1683.0, 1682.0, 1682.0, 1683.0, 1685.0, 1684.0, 1683.0, 1683.0, 1684.0, 1687.0, 1687.0, 1683.0, 1684.0, 1686.0, 1688.0, 1685.0, 1685.0, 1689.0, 1684.0, 1686.0, 1688.0, 1687.0, 1687.0, 1688.0, 1690.0, 1687.0, 1685.0, 1685.0, 1687.0, 1688.0, 1694.0, 1689.0, 1688.0, 1685.0, 1688.0, 1693.0, 1688.0, 1688.0, 1686.0, 1687.0, 1690.0, 1689.0, 1693.0, 1691.0, 1691.0, 1687.0, 1690.0, 1693.0, 1695.0, 1689.0, 1688.0, 1691.0, 1691.0, 1690.0, 1692.0, 1687.0, 1687.0, 1691.0, 1691.0, 1690.0, 1690.0, 1691.0, 1693.0, 1690.0, 1688.0, 1689.0, 1689.0, 1688.0, 1691.0, 1687.0, 1687.0, 1687.0, 1690.0, 1690.0, 1692.0, 1691.0, 1689.0, 1689.0, 1692.0, 1690.0, 1689.0, 1693.0, 1692.0, 1718.0, 1703.0, 1689.0, 1691.0, 1691.0, 1693.0, 1694.0, 1693.0, 1694.0, 1692.0, 1694.0, 1694.0, 1693.0, 1694.0, 1692.0, 1697.0, 1696.0, 1691.0, 1691.0, 1694.0, 1691.0, 1691.0, 1694.0, 1693.0, 1691.0, 1693.0, 1694.0, 1695.0, 1690.0, 1688.0, 1689.0, 1691.0, 1691.0, 1691.0, 1692.0, 1693.0, 1695.0, 1690.0, 1690.0, 1695.0, 1695.0, 1692.0, 1692.0, 1695.0, 1696.0, 1695.0, 1697.0, 1698.0, 1693.0, 1693.0, 1694.0, 1693.0, 1692.0, 1693.0, 1698.0, 1697.0, 1699.0, 1695.0, 1697.0, 1697.0, 1699.0, 1695.0, 1696.0, 1699.0, 1693.0, 1692.0, 1693.0, 1694.0, 1698.0, 1699.0, 1693.0, 1697.0, 1696.0, 1696.0, 1698.0, 1700.0, 1695.0, 1696.0, 1694.0, 1695.0, 1699.0, 1694.0, 1695.0, 1697.0, 1695.0, 1695.0, 1696.0, 1696.0, 1700.0, 1698.0, 1698.0, 1699.0, 1697.0, 1700.0, 1694.0, 1694.0, 1695.0, 1697.0, 1701.0, 1697.0, 1699.0, 1701.0, 1699.0, 1701.0, 1705.0, 1700.0, 1703.0, 1698.0, 1701.0, 1698.0, 1698.0, 1698.0, 1704.0, 1698.0, 1698.0, 1698.0, 1698.0, 1705.0, 1702.0, 1697.0, 1700.0, 1699.0, 1699.0, 1699.0, 1705.0, 1698.0, 1697.0]
    },
    "slices": {}
  }
}