{
    "AcquisitionMatrixPE": 68, 
    "AcquisitionNumber": 1, 
    "AcquisitionTime": "15:53:45.142500", 
    "BaseResolution": 68, 
    "CoilString": "C:HEA;HEP", 
    "ConversionSoftware": "dcm2niix", 
    "ConversionSoftwareVersion": "v1.0.20190902", 
    "DeviceSerialNumber": "35450", 
    "DwellTime": 2.82e-05, 
    "EchoNumber": 2, 
    "EchoTime": 0.00765, 
    "EchoTime1": 0.00519, 
    "EchoTime2": 0.00765, 
    "FlipAngle": 60, 
    "ImageOrientationPatientDICOM": [
        0.999816, 
        0.00237287, 
        0.0190502, 
        -4.19453e-08, 
        0.992332, 
        -0.123601
    ], 
    "ImageType": [
        "ORIGINAL", 
        "PRIMARY", 
        "P", 
        "ND"
    ], 
    "ImagingFrequency": 123.218, 
    "InPlanePhaseEncodingDirectionDICOM": "COL", 
    "InstitutionAddress": "Univeristy_Ave._197_Newark_North_East_US_07102-1814", 
    "InstitutionName": "RUBIC", 
    "InstitutionalDepartmentName": "Department", 
    "IntendedFor": [
        "func/sub-219_task-cardgame_run-01_bold.nii.gz", 
        "func/sub-219_task-cardgame_run-02_bold.nii.gz", 
        "func/sub-219_task-rest_run-04_bold.nii.gz", 
        "func/sub-219_task-cardgame_run-03_bold.nii.gz", 
        "func/sub-219_task-rest_run-02_bold.nii.gz", 
        "func/sub-219_task-rest_run-01_bold.nii.gz", 
        "func/sub-219_task-rest_run-03_bold.nii.gz"
    ], 
    "MRAcquisitionType": "2D", 
    "MagneticFieldStrength": 3, 
    "Manufacturer": "Siemens", 
    "ManufacturersModelName": "TrioTim", 
    "Modality": "MR", 
    "PartialFourier": 1, 
    "PatientPosition": "HFS", 
    "PercentPhaseFOV": 100, 
    "PhaseEncodingDirection": "j-", 
    "PhaseEncodingSteps": 68, 
    "PhaseResolution": 1, 
    "PixelBandwidth": 261, 
    "ProcedureStepDescription": "Krekelberg_David", 
    "ProtocolName": "gre_field_mapping", 
    "PulseSequenceDetails": "%SiemensSeq%_gre_field_mapping", 
    "ReceiveCoilName": "HeadMatrix", 
    "ReconMatrixPE": 68, 
    "RepetitionTime": 0.402, 
    "SAR": 0.260207, 
    "ScanningSequence": "GR", 
    "SequenceName": "_fm2d2r", 
    "SequenceVariant": "SP", 
    "SeriesDescription": "gre_field_mapping", 
    "SeriesNumber": 5, 
    "ShimSetting": [
        1977, 
        -686, 
        -7539, 
        795, 
        203, 
        -32, 
        -80, 
        -88
    ], 
    "SliceThickness": 2.5, 
    "SliceTiming": [
        0.20312, 
        0, 
        0.21875, 
        0.01562, 
        0.23438, 
        0.03125, 
        0.23438, 
        0.03125, 
        0.25, 
        0.04688, 
        0.26562, 
        0.0625, 
        0.26562, 
        0.0625, 
        0.28125, 
        0.07812, 
        0.29688, 
        0.09375, 
        0.3125, 
        0.10938, 
        0.3125, 
        0.10938, 
        0.32812, 
        0.125, 
        0.34375, 
        0.14062, 
        0.34375, 
        0.14062, 
        0.35938, 
        0.15625, 
        0.375, 
        0.17188, 
        0.375, 
        0.1875, 
        0.39062, 
        0.1875
    ], 
    "SoftwareVersions": "syngo_MR_B19", 
    "SpacingBetweenSlices": 3, 
    "StationName": "MRC35450", 
    "TxRefAmp": 342.309, 
    "dcmmeta_affine": [
        [
            -2.9994471073150635, 
            -1.258358679478988e-07, 
            0.05759227275848389, 
            98.26148223876953
        ], 
        [
            -0.007118623703718185, 
            2.9769957065582275, 
            -0.37073612213134766, 
            -73.89026641845703
        ], 
        [
            0.0571507066488266, 
            0.37080442905426025, 
            2.9764404296875, 
            -40.50495147705078
        ], 
        [
            0.0, 
            0.0, 
            0.0, 
            1.0
        ]
    ], 
    "dcmmeta_reorient_transform": [
        [
            0.0, 
            -1.0, 
            0.0, 
            67.0
        ], 
        [
            1.0, 
            0.0, 
            0.0, 
            0.0
        ], 
        [
            0.0, 
            0.0, 
            -1.0, 
            35.0
        ], 
        [
            0.0, 
            0.0, 
            0.0, 
            1.0
        ]
    ], 
    "dcmmeta_shape": [
        68, 
        68, 
        36
    ], 
    "dcmmeta_slice_dim": 2, 
    "dcmmeta_version": 0.6, 
    "global": {
        "const": {
            "AcquisitionMatrix": [
                68, 
                0, 
                0, 
                68
            ], 
            "AcquisitionNumber": 1, 
            "AngioFlag": "N", 
            "BitsAllocated": 16, 
            "BitsStored": 12, 
            "Columns": 68, 
            "EchoNumbers": 2, 
            "EchoTime": 7.65, 
            "EchoTrainLength": 1, 
            "FlipAngle": 60.0, 
            "HighBit": 11, 
            "ImageOrientationPatient": [
                0.99981571201944, 
                0.00237287453708, 
                0.01905023531357, 
                -4.194529e-08, 
                0.99233193767192, 
                -0.1236014784551
            ], 
            "ImageType": [
                "ORIGINAL", 
                "PRIMARY", 
                "P", 
                "ND"
            ], 
            "ImagedNucleus": "1H", 
            "ImagingFrequency": 123.218472, 
            "InPlanePhaseEncodingDirection": "COL", 
            "MRAcquisitionType": "2D", 
            "MagneticFieldStrength": 3.0, 
            "Manufacturer": "SIEMENS", 
            "ManufacturerModelName": "TrioTim", 
            "Modality": "MR", 
            "NumberOfAverages": 1.0, 
            "NumberOfPhaseEncodingSteps": 68, 
            "PercentPhaseFieldOfView": 100.0, 
            "PercentSampling": 100.0, 
            "PerformedProcedureStepStartTime": "153524.312000", 
            "PhotometricInterpretation": "MONOCHROME2", 
            "PixelBandwidth": 261.0, 
            "PixelRepresentation": 0, 
            "PixelSpacing": [
                3.0, 
                3.0
            ], 
            "ProtocolName": "gre_field_mapping", 
            "RepetitionTime": 402.0, 
            "RescaleIntercept": -4096.0, 
            "RescaleSlope": 2.0, 
            "RescaleType": "US", 
            "Rows": 68, 
            "SAR": 0.2602073223636, 
            "SamplesPerPixel": 1, 
            "ScanningSequence": "GR", 
            "SequenceName": "*fm2d2r", 
            "SequenceVariant": "SP", 
            "SeriesDescription": "gre_field_mapping", 
            "SeriesNumber": 5, 
            "SeriesTime": "155446.921000", 
            "SliceThickness": 2.5, 
            "SoftwareVersions": "syngo MR B19", 
            "SpacingBetweenSlices": 3.0, 
            "SpecificCharacterSet": "ISO_IR 100", 
            "StudyID": "1", 
            "StudyTime": "153524.250000", 
            "TransmitCoilName": "Body", 
            "VariableFlipAngleFlag": "N", 
            "WindowCenterWidthExplanation": "Algo1", 
            "dBdt": 0.0
        }, 
        "slices": {
            "AcquisitionTime": [
                "155345.142500", 
                "155344.940000", 
                "155345.152500", 
                "155344.950000", 
                "155345.165000", 
                "155344.962500", 
                "155345.175000", 
                "155344.972500", 
                "155345.187500", 
                "155344.985000", 
                "155345.197500", 
                "155344.995000", 
                "155345.207500", 
                "155345.007500", 
                "155345.220000", 
                "155345.017500", 
                "155345.230000", 
                "155345.030000", 
                "155345.242500", 
                "155345.040000", 
                "155345.252500", 
                "155345.052500", 
                "155345.265000", 
                "155345.062500", 
                "155345.275000", 
                "155345.075000", 
                "155345.287500", 
                "155345.085000", 
                "155345.297500", 
                "155345.097500", 
                "155345.310000", 
                "155345.107500", 
                "155345.320000", 
                "155345.120000", 
                "155345.332500", 
                "155345.130000"
            ], 
            "ContentTime": [
                "155446.953000", 
                "155446.921000", 
                "155446.953000", 
                "155446.921000", 
                "155446.953000", 
                "155446.921000", 
                "155446.968000", 
                "155446.921000", 
                "155446.968000", 
                "155446.937000", 
                "155446.968000", 
                "155446.937000", 
                "155446.968000", 
                "155446.937000", 
                "155446.968000", 
                "155446.937000", 
                "155446.968000", 
                "155446.937000", 
                "155446.968000", 
                "155446.937000", 
                "155446.968000", 
                "155446.937000", 
                "155446.984000", 
                "155446.937000", 
                "155446.984000", 
                "155446.953000", 
                "155446.984000", 
                "155446.953000", 
                "155446.984000", 
                "155446.953000", 
                "155446.984000", 
                "155446.953000", 
                "155446.984000", 
                "155446.953000", 
                "155446.984000", 
                "155446.953000"
            ], 
            "CsaImage.ICE_Dims": [
                "X_2_1_1_1_1_1_19_1_1_1_1_128", 
                "X_2_1_1_1_1_1_1_1_1_2_1_128", 
                "X_2_1_1_1_1_1_20_1_1_3_1_128", 
                "X_2_1_1_1_1_1_2_1_1_4_1_128", 
                "X_2_1_1_1_1_1_21_1_1_5_1_128", 
                "X_2_1_1_1_1_1_3_1_1_6_1_128", 
                "X_2_1_1_1_1_1_22_1_1_7_1_128", 
                "X_2_1_1_1_1_1_4_1_1_8_1_128", 
                "X_2_1_1_1_1_1_23_1_1_9_1_128", 
                "X_2_1_1_1_1_1_5_1_1_10_1_128", 
                "X_2_1_1_1_1_1_24_1_1_11_1_128", 
                "X_2_1_1_1_1_1_6_1_1_12_1_128", 
                "X_2_1_1_1_1_1_25_1_1_13_1_128", 
                "X_2_1_1_1_1_1_7_1_1_14_1_128", 
                "X_2_1_1_1_1_1_26_1_1_15_1_128", 
                "X_2_1_1_1_1_1_8_1_1_16_1_128", 
                "X_2_1_1_1_1_1_27_1_1_17_1_128", 
                "X_2_1_1_1_1_1_9_1_1_18_1_128", 
                "X_2_1_1_1_1_1_28_1_1_19_1_128", 
                "X_2_1_1_1_1_1_10_1_1_20_1_128", 
                "X_2_1_1_1_1_1_29_1_1_21_1_128", 
                "X_2_1_1_1_1_1_11_1_1_22_1_128", 
                "X_2_1_1_1_1_1_30_1_1_23_1_128", 
                "X_2_1_1_1_1_1_12_1_1_24_1_128", 
                "X_2_1_1_1_1_1_31_1_1_25_1_128", 
                "X_2_1_1_1_1_1_13_1_1_26_1_128", 
                "X_2_1_1_1_1_1_32_1_1_27_1_128", 
                "X_2_1_1_1_1_1_14_1_1_28_1_128", 
                "X_2_1_1_1_1_1_33_1_1_29_1_128", 
                "X_2_1_1_1_1_1_15_1_1_30_1_128", 
                "X_2_1_1_1_1_1_34_1_1_31_1_128", 
                "X_2_1_1_1_1_1_16_1_1_32_1_128", 
                "X_2_1_1_1_1_1_35_1_1_33_1_128", 
                "X_2_1_1_1_1_1_17_1_1_34_1_128", 
                "X_2_1_1_1_1_1_36_1_1_35_1_128", 
                "X_2_1_1_1_1_1_18_1_1_36_1_128"
            ], 
            "CsaImage.ProtocolSliceNumber": [
                0, 
                1, 
                2, 
                3, 
                4, 
                5, 
                6, 
                7, 
                8, 
                9, 
                10, 
                11, 
                12, 
                13, 
                14, 
                15, 
                16, 
                17, 
                18, 
                19, 
                20, 
                21, 
                22, 
                23, 
                24, 
                25, 
                26, 
                27, 
                28, 
                29, 
                30, 
                31, 
                32, 
                33, 
                34, 
                35
            ], 
            "CsaImage.SliceMeasurementDuration": [
                54082.5, 
                54085.0, 
                54085.0, 
                54085.0, 
                54082.5, 
                54085.0, 
                54085.0, 
                54085.0, 
                54082.5, 
                54085.0, 
                54085.0, 
                54085.0, 
                54085.0, 
                54085.0, 
                54085.0, 
                54085.0, 
                54085.0, 
                54085.0, 
                54085.0, 
                54085.0, 
                54085.0, 
                54082.5, 
                54085.0, 
                54085.0, 
                54085.0, 
                54082.5, 
                54085.0, 
                54085.0, 
                54085.0, 
                54082.5, 
                54085.0, 
                54085.0, 
                54085.0, 
                54082.5, 
                54085.0, 
                54085.0
            ], 
            "CsaImage.SlicePosition_PCS": [
                [
                    -98.26146821, 
                    -125.56845522, 
                    -15.66128513
                ], 
                [
                    -98.31906036, 
                    -125.19772005, 
                    -12.68483898
                ], 
                [
                    -98.37665275, 
                    -124.82698298, 
                    -9.70839092
                ], 
                [
                    -98.43424515, 
                    -124.45624781, 
                    -6.73194477
                ], 
                [
                    -98.49183754, 
                    -124.08551073, 
                    -3.75549671
                ], 
                [
                    -98.54942969, 
                    -123.71477557, 
                    -0.7790496
                ], 
                [
                    -98.60702208, 
                    -123.34403849, 
                    2.1973975
                ], 
                [
                    -98.66461448, 
                    -122.97330332, 
                    5.17384461
                ], 
                [
                    -98.72220687, 
                    -122.60256625, 
                    8.15029171
                ], 
                [
                    -98.77979902, 
                    -122.23183108, 
                    11.12673897
                ], 
                [
                    -98.83739141, 
                    -121.861094, 
                    14.10318616
                ], 
                [
                    -98.89498381, 
                    -121.49035883, 
                    17.0796335
                ], 
                [
                    -98.95257596, 
                    -121.11962176, 
                    20.05608013
                ], 
                [
                    -99.01016835, 
                    -120.74888659, 
                    23.03252819
                ], 
                [
                    -99.06776074, 
                    -120.37814951, 
                    26.0089753
                ], 
                [
                    -99.12535313, 
                    -120.00741434, 
                    28.9854224
                ], 
                [
                    -99.18294529, 
                    -119.63667727, 
                    31.96186855
                ], 
                [
                    -99.24053768, 
                    -119.2659421, 
                    34.93831661
                ], 
                [
                    -99.29813007, 
                    -118.89520502, 
                    37.91476277
                ], 
                [
                    -99.35572246, 
                    -118.52446986, 
                    40.89121082
                ], 
                [
                    -99.41331462, 
                    -118.15373469, 
                    43.86765698
                ], 
                [
                    -99.47090701, 
                    -117.78299761, 
                    46.84410504
                ], 
                [
                    -99.5284994, 
                    -117.41226149, 
                    49.82055309
                ], 
                [
                    -99.58609156, 
                    -117.04152537, 
                    52.79700115
                ], 
                [
                    -99.64368395, 
                    -116.67078924, 
                    55.7734454
                ], 
                [
                    -99.70127634, 
                    -116.30005312, 
                    58.74989346
                ], 
                [
                    -99.75886873, 
                    -115.929317, 
                    61.72634152
                ], 
                [
                    -99.81646088, 
                    -115.55858088, 
                    64.70278958
                ], 
                [
                    -99.87405328, 
                    -115.18784476, 
                    67.67923382
                ], 
                [
                    -99.93164567, 
                    -114.81710863, 
                    70.65568188
                ], 
                [
                    -99.98923794, 
                    -114.44637251, 
                    73.63212994
                ], 
                [
                    -100.04683033, 
                    -114.07563639, 
                    76.608578
                ], 
                [
                    -100.10442261, 
                    -113.70490027, 
                    79.58502606
                ], 
                [
                    -100.162015, 
                    -113.33416415, 
                    82.56147411
                ], 
                [
                    -100.21960727, 
                    -112.96342802, 
                    85.53792217
                ], 
                [
                    -100.27719954, 
                    -112.5926919, 
                    88.5143626
                ]
            ], 
            "CsaImage.TimeAfterStart": [
                0.6075, 
                0.405, 
                0.6175, 
                0.4175, 
                0.63, 
                0.4275, 
                0.64, 
                0.44, 
                0.6525, 
                0.45, 
                0.6625, 
                0.4625, 
                0.675, 
                0.4725, 
                0.685, 
                0.485, 
                0.6975, 
                0.495, 
                0.7075, 
                0.5075, 
                0.72, 
                0.5175, 
                0.73, 
                0.53, 
                0.7425, 
                0.54, 
                0.7525, 
                0.5525, 
                0.765, 
                0.5625, 
                0.775, 
                0.5725, 
                0.7875, 
                0.585, 
                0.7975, 
                0.595
            ], 
            "ImagePositionPatient": [
                [
                    -98.261468208785, 
                    -125.56845522215, 
                    -15.661285131934
                ], 
                [
                    -98.319060362334, 
                    -125.19772005369, 
                    -12.684838980201
                ], 
                [
                    -98.376652754302, 
                    -124.82698297789, 
                    -9.708390921119
                ], 
                [
                    -98.434245146269, 
                    -124.45624780943, 
                    -6.7319447693856
                ], 
                [
                    -98.491837538237, 
                    -124.08551073362, 
                    -3.7554967103036
                ], 
                [
                    -98.549429691786, 
                    -123.71477556517, 
                    -0.7790496048959
                ], 
                [
                    -98.607022083754, 
                    -123.34403848936, 
                    2.1973975005119
                ], 
                [
                    -98.664614475722, 
                    -122.9733033209, 
                    5.1738446059196
                ], 
                [
                    -98.72220686769, 
                    -122.6025662451, 
                    8.1502917113273
                ], 
                [
                    -98.779799021239, 
                    -122.23183107664, 
                    11.126738965747
                ], 
                [
                    -98.837391413207, 
                    -121.86109400084, 
                    14.103186160561
                ], 
                [
                    -98.894983805174, 
                    -121.49035883238, 
                    17.079633504388
                ], 
                [
                    -98.952575958724, 
                    -121.11962175657, 
                    20.056080132958
                ], 
                [
                    -99.010168350691, 
                    -120.74888658812, 
                    23.03252819204
                ], 
                [
                    -99.067760742659, 
                    -120.37814951231, 
                    26.008975297448
                ], 
                [
                    -99.125353134627, 
                    -120.00741434385, 
                    28.985422402856
                ], 
                [
                    -99.182945288176, 
                    -119.63667726805, 
                    31.961868554589
                ], 
                [
                    -99.240537680144, 
                    -119.26594209959, 
                    34.938316613671
                ], 
                [
                    -99.298130072112, 
                    -118.89520502379, 
                    37.914762765404
                ], 
                [
                    -99.355722464079, 
                    -118.52446985533, 
                    40.891210824486
                ], 
                [
                    -99.413314617629, 
                    -118.15373468687, 
                    43.86765697622
                ], 
                [
                    -99.470907009596, 
                    -117.78299761107, 
                    46.844105035302
                ], 
                [
                    -99.528499401564, 
                    -117.41226148893, 
                    49.820553094384
                ], 
                [
                    -99.586091555113, 
                    -117.0415253668, 
                    52.797001153466
                ], 
                [
                    -99.643683947081, 
                    -116.67078924467, 
                    55.773445397851
                ], 
                [
                    -99.701276339049, 
                    -116.30005312254, 
                    58.749893456933
                ], 
                [
                    -99.758868731017, 
                    -115.92931700041, 
                    61.726341516015
                ], 
                [
                    -99.816460884566, 
                    -115.55858087828, 
                    64.702789575097
                ], 
                [
                    -99.874053276534, 
                    -115.18784475615, 
                    67.679233819482
                ], 
                [
                    -99.931645668501, 
                    -114.81710863401, 
                    70.655681878564
                ], 
                [
                    -99.98923794126, 
                    -114.44637251188, 
                    73.632129937646
                ], 
                [
                    -100.04683033323, 
                    -114.07563638975, 
                    76.608577996728
                ], 
                [
                    -100.10442260599, 
                    -113.70490026762, 
                    79.58502605581
                ], 
                [
                    -100.16201499795, 
                    -113.33416414549, 
                    82.561474114892
                ], 
                [
                    -100.21960727071, 
                    -112.96342802336, 
                    85.537922173974
                ], 
                [
                    -100.27719954347, 
                    -112.59269190123, 
                    88.514362603661
                ]
            ], 
            "InstanceCreationTime": [
                "155446.953000", 
                "155446.921000", 
                "155446.953000", 
                "155446.921000", 
                "155446.953000", 
                "155446.921000", 
                "155446.968000", 
                "155446.921000", 
                "155446.968000", 
                "155446.937000", 
                "155446.968000", 
                "155446.937000", 
                "155446.968000", 
                "155446.937000", 
                "155446.968000", 
                "155446.937000", 
                "155446.968000", 
                "155446.937000", 
                "155446.968000", 
                "155446.937000", 
                "155446.968000", 
                "155446.937000", 
                "155446.984000", 
                "155446.937000", 
                "155446.984000", 
                "155446.953000", 
                "155446.984000", 
                "155446.953000", 
                "155446.984000", 
                "155446.953000", 
                "155446.984000", 
                "155446.953000", 
                "155446.984000", 
                "155446.953000", 
                "155446.984000", 
                "155446.953000"
            ], 
            "InstanceNumber": [
                1, 
                2, 
                3, 
                4, 
                5, 
                6, 
                7, 
                8, 
                9, 
                10, 
                11, 
                12, 
                13, 
                14, 
                15, 
                16, 
                17, 
                18, 
                19, 
                20, 
                21, 
                22, 
                23, 
                24, 
                25, 
                26, 
                27, 
                28, 
                29, 
                30, 
                31, 
                32, 
                33, 
                34, 
                35, 
                36
            ], 
            "LargestImagePixelValue": [
                4094, 
                4092, 
                4084, 
                4094, 
                4094, 
                4088, 
                4074, 
                4092, 
                4091, 
                4089, 
                4081, 
                4081, 
                4089, 
                4094, 
                4094, 
                4094, 
                4080, 
                4079, 
                4093, 
                4092, 
                4094, 
                4089, 
                4093, 
                4092, 
                4086, 
                4094, 
                4093, 
                4092, 
                4088, 
                4094, 
                4093, 
                4093, 
                4094, 
                4090, 
                4094, 
                4085
            ], 
            "SliceLocation": [
                -29.169546349373, 
                -26.169547496799, 
                -23.169546511565, 
                -20.169547654413, 
                -17.16954666918, 
                -14.169546870418, 
                -11.169546831372, 
                -8.169547028033, 
                -5.1695469889866, 
                -2.1695470423832, 
                0.83045308536829, 
                3.8304531252538, 
                6.8304526866297, 
                9.8304534361555, 
                12.830453475202, 
                15.830453278541, 
                18.830452366823, 
                21.830453116349, 
                24.830452209208, 
                27.830452958734, 
                30.830451811309, 
                33.830452796542, 
                36.830453663922, 
                39.830454526724, 
                42.830451609356, 
                45.830452476735, 
                48.830453344115, 
                51.830454206918, 
                54.830451289549, 
                57.830452156929, 
                60.83045302202, 
                63.8304538894, 
                66.830454754491, 
                69.83045562187, 
                72.830456486962, 
                75.830449782556
            ], 
            "SmallestImagePixelValue": [
                1, 
                1, 
                0, 
                4, 
                16, 
                5, 
                0, 
                10, 
                37, 
                5, 
                5, 
                23, 
                4, 
                13, 
                3, 
                16, 
                36, 
                7, 
                2, 
                9, 
                1, 
                2, 
                7, 
                1, 
                11, 
                3, 
                1, 
                8, 
                6, 
                2, 
                4, 
                4, 
                5, 
                1, 
                0, 
                0
            ], 
            "WindowCenter": [
                -212.0, 
                -190.0, 
                -150.0, 
                -170.0, 
                -180.0, 
                -182.0, 
                -222.0, 
                -170.0, 
                -176.0, 
                -158.0, 
                -176.0, 
