{
    "AcquisitionMatrixPE": 68, 
    "AcquisitionNumber": 1, 
    "AcquisitionTime": "15:22:23.867500", 
    "BaseResolution": 68, 
    "CoilString": "C:HEA;HEP", 
    "ConversionSoftware": "dcm2niix", 
    "ConversionSoftwareVersion": "v1.0.20190902", 
    "DeviceSerialNumber": "35450", 
    "DwellTime": 2.82e-05, 
    "EchoNumber": 2, 
    "EchoTime": 0.00765, 
    "EchoTime1": 0.00519, 
    "EchoTime2": 0.00765, 
    "FlipAngle": 60, 
    "ImageOrientationPatientDICOM": [
        0.999976, 
        0.000814536, 
        0.00693358, 
        -2.7569e-08, 
        0.993171, 
        -0.116671
    ], 
    "ImageType": [
        "ORIGINAL", 
        "PRIMARY", 
        "P", 
        "ND"
    ], 
    "ImagingFrequency": 123.219, 
    "InPlanePhaseEncodingDirectionDICOM": "COL", 
    "InstitutionAddress": "Univeristy_Ave._197_Newark_North_East_US_07102-1814", 
    "InstitutionName": "RUBIC", 
    "InstitutionalDepartmentName": "Department", 
    "IntendedFor": [
        "func/sub-218_task-cardgame_run-01_bold.nii.gz", 
        "func/sub-218_task-cardgame_run-03_bold.nii.gz", 
        "func/sub-218_task-rest_run-03_bold.nii.gz", 
        "func/sub-218_task-rest_run-04_bold.nii.gz", 
        "func/sub-218_task-rest_run-02_bold.nii.gz", 
        "func/sub-218_task-rest_run-01_bold.nii.gz", 
        "func/sub-218_task-cardgame_run-02_bold.nii.gz"
    ], 
    "MRAcquisitionType": "2D", 
    "MagneticFieldStrength": 3, 
    "Manufacturer": "Siemens", 
    "ManufacturersModelName": "TrioTim", 
    "Modality": "MR", 
    "MultibandAccelerationFactor": 2, 
    "PartialFourier": 1, 
    "PatientPosition": "HFS", 
    "PercentPhaseFOV": 100, 
    "PhaseEncodingDirection": "j-", 
    "PhaseEncodingSteps": 68, 
    "PhaseResolution": 1, 
    "PixelBandwidth": 261, 
    "ProcedureStepDescription": "Krekelberg_David", 
    "ProtocolName": "gre_field_mapping", 
    "PulseSequenceDetails": "%SiemensSeq%_gre_field_mapping", 
    "ReceiveCoilName": "HeadMatrix", 
    "ReconMatrixPE": 68, 
    "RepetitionTime": 0.402, 
    "SAR": 0.288469, 
    "ScanningSequence": "GR", 
    "SequenceName": "_fm2d2r", 
    "SequenceVariant": "SP", 
    "SeriesDescription": "gre_field_mapping", 
    "SeriesNumber": 5, 
    "ShimSetting": [
        1974, 
        -656, 
        -7530, 
        714, 
        83, 
        -34, 
        -503, 
        -71
    ], 
    "SliceThickness": 2.5, 
    "SliceTiming": [
        0.20312, 
        0, 
        0.20312, 
        0, 
        0.21875, 
        0.01562, 
        0.23438, 
        0.03125, 
        0.23438, 
        0.04688, 
        0.25, 
        0.04688, 
        0.26562, 
        0.0625, 
        0.28125, 
        0.07812, 
        0.28125, 
        0.07812, 
        0.29688, 
        0.09375, 
        0.3125, 
        0.10938, 
        0.32812, 
        0.125, 
        0.32812, 
        0.125, 
        0.34375, 
        0.14062, 
        0.35938, 
        0.15625, 
        0.35938, 
        0.15625, 
        0.375, 
        0.17188, 
        0.39062, 
        0.1875
    ], 
    "SoftwareVersions": "syngo_MR_B19", 
    "SpacingBetweenSlices": 3, 
    "StationName": "MRC35450", 
    "TxRefAmp": 347.536, 
    "dcmmeta_affine": [
        [
            -2.999926805496216, 
            -8.270708917734737e-08, 
            0.020943760871887207, 
            102.98693084716797
        ], 
        [
            -0.0024436083622276783, 
            2.9795119762420654, 
            -0.3500032424926758, 
            -75.1655044555664
        ], 
        [
            0.020800737664103508, 
            0.3500122129917145, 
            2.9794387817382812, 
            -48.126548767089844
        ], 
        [
            0.0, 
            0.0, 
            0.0, 
            1.0
        ]
    ], 
    "dcmmeta_reorient_transform": [
        [
            0.0, 
            -1.0, 
            0.0, 
            67.0
        ], 
        [
            1.0, 
            0.0, 
            0.0, 
            0.0
        ], 
        [
            0.0, 
            0.0, 
            -1.0, 
            35.0
        ], 
        [
            0.0, 
            0.0, 
            0.0, 
            1.0
        ]
    ], 
    "dcmmeta_shape": [
        68, 
        68, 
        36
    ], 
    "dcmmeta_slice_dim": 2, 
    "dcmmeta_version": 0.6, 
    "global": {
        "const": {
            "AcquisitionMatrix": [
                68, 
                0, 
                0, 
                68
            ], 
            "AcquisitionNumber": 1, 
            "AngioFlag": "N", 
            "BitsAllocated": 16, 
            "BitsStored": 12, 
            "Columns": 68, 
            "EchoNumbers": 2, 
            "EchoTime": 7.65, 
            "EchoTrainLength": 1, 
            "FlipAngle": 60.0, 
            "HighBit": 11, 
            "ImageOrientationPatient": [
                0.99997563070726, 
                0.0008145361468, 
                0.00693357934158, 
                -2.756903e-08, 
                0.99317064931944, 
                -0.116670738964
            ], 
            "ImageType": [
                "ORIGINAL", 
                "PRIMARY", 
                "P", 
                "ND"
            ], 
            "ImagedNucleus": "1H", 
            "ImagingFrequency": 123.218503, 
            "InPlanePhaseEncodingDirection": "COL", 
            "MRAcquisitionType": "2D", 
            "MagneticFieldStrength": 3.0, 
            "Manufacturer": "SIEMENS", 
            "ManufacturerModelName": "TrioTim", 
            "Modality": "MR", 
            "NumberOfAverages": 1.0, 
            "NumberOfPhaseEncodingSteps": 68, 
            "PercentPhaseFieldOfView": 100.0, 
            "PercentSampling": 100.0, 
            "PerformedProcedureStepStartTime": "150404.187000", 
            "PhotometricInterpretation": "MONOCHROME2", 
            "PixelBandwidth": 261.0, 
            "PixelRepresentation": 0, 
            "PixelSpacing": [
                3.0, 
                3.0
            ], 
            "ProtocolName": "gre_field_mapping", 
            "RepetitionTime": 402.0, 
            "RescaleIntercept": -4096.0, 
            "RescaleSlope": 2.0, 
            "RescaleType": "US", 
            "Rows": 68, 
            "SAR": 0.28846919956779, 
            "SamplesPerPixel": 1, 
            "ScanningSequence": "GR", 
            "SequenceName": "*fm2d2r", 
            "SequenceVariant": "SP", 
            "SeriesDescription": "gre_field_mapping", 
            "SeriesNumber": 5, 
            "SeriesTime": "152321.453000", 
            "SliceThickness": 2.5, 
            "SoftwareVersions": "syngo MR B19", 
            "SpacingBetweenSlices": 3.0, 
            "SpecificCharacterSet": "ISO_IR 100", 
            "StudyID": "1", 
            "StudyTime": "150404.140000", 
            "TransmitCoilName": "Body", 
            "VariableFlipAngleFlag": "N", 
            "WindowCenterWidthExplanation": "Algo1", 
            "dBdt": 0.0
        }, 
        "slices": {
            "AcquisitionTime": [
                "152223.867500", 
                "152223.667500", 
                "152223.880000", 
                "152223.677500", 
                "152223.890000", 
                "152223.690000", 
                "152223.902500", 
                "152223.700000", 
                "152223.912500", 
                "152223.712500", 
                "152223.925000", 
                "152223.722500", 
                "152223.935000", 
                "152223.735000", 
                "152223.947500", 
                "152223.745000", 
                "152223.957500", 
                "152223.757500", 
                "152223.970000", 
                "152223.767500", 
                "152223.980000", 
                "152223.777500", 
                "152223.992500", 
                "152223.790000", 
                "152224.002500", 
                "152223.800000", 
                "152224.015000", 
                "152223.812500", 
                "152224.025000", 
                "152223.822500", 
                "152224.037500", 
                "152223.835000", 
                "152224.047500", 
                "152223.845000", 
                "152224.060000", 
                "152223.857500"
            ], 
            "ContentTime": [
                "152324.093000", 
                "152321.453000", 
                "152324.093000", 
                "152321.453000", 
                "152324.093000", 
                "152321.453000", 
                "152324.093000", 
                "152321.453000", 
                "152324.093000", 
                "152321.453000", 
                "152324.093000", 
                "152321.453000", 
                "152324.093000", 
                "152321.468000", 
                "152324.109000", 
                "152321.468000", 
                "152324.109000", 
                "152321.468000", 
                "152324.109000", 
                "152321.468000", 
                "152324.109000", 
                "152321.468000", 
                "152324.109000", 
                "152324.078000", 
                "152324.109000", 
                "152324.078000", 
                "152324.109000", 
                "152324.078000", 
                "152324.125000", 
                "152324.078000", 
                "152324.125000", 
                "152324.078000", 
                "152324.125000", 
                "152324.078000", 
                "152324.125000", 
                "152324.093000"
            ], 
            "CsaImage.ICE_Dims": [
                "X_2_1_1_1_1_1_19_1_1_1_1_62", 
                "X_2_1_1_1_1_1_1_1_1_2_1_62", 
                "X_2_1_1_1_1_1_20_1_1_3_1_62", 
                "X_2_1_1_1_1_1_2_1_1_4_1_62", 
                "X_2_1_1_1_1_1_21_1_1_5_1_62", 
                "X_2_1_1_1_1_1_3_1_1_6_1_62", 
                "X_2_1_1_1_1_1_22_1_1_7_1_62", 
                "X_2_1_1_1_1_1_4_1_1_8_1_62", 
                "X_2_1_1_1_1_1_23_1_1_9_1_62", 
                "X_2_1_1_1_1_1_5_1_1_10_1_62", 
                "X_2_1_1_1_1_1_24_1_1_11_1_62", 
                "X_2_1_1_1_1_1_6_1_1_12_1_62", 
                "X_2_1_1_1_1_1_25_1_1_13_1_62", 
                "X_2_1_1_1_1_1_7_1_1_14_1_62", 
                "X_2_1_1_1_1_1_26_1_1_15_1_62", 
                "X_2_1_1_1_1_1_8_1_1_16_1_62", 
                "X_2_1_1_1_1_1_27_1_1_17_1_62", 
                "X_2_1_1_1_1_1_9_1_1_18_1_62", 
                "X_2_1_1_1_1_1_28_1_1_19_1_62", 
                "X_2_1_1_1_1_1_10_1_1_20_1_62", 
                "X_2_1_1_1_1_1_29_1_1_21_1_62", 
                "X_2_1_1_1_1_1_11_1_1_22_1_62", 
                "X_2_1_1_1_1_1_30_1_1_23_1_62", 
                "X_2_1_1_1_1_1_12_1_1_24_1_62", 
                "X_2_1_1_1_1_1_31_1_1_25_1_62", 
                "X_2_1_1_1_1_1_13_1_1_26_1_62", 
                "X_2_1_1_1_1_1_32_1_1_27_1_62", 
                "X_2_1_1_1_1_1_14_1_1_28_1_62", 
                "X_2_1_1_1_1_1_33_1_1_29_1_62", 
                "X_2_1_1_1_1_1_15_1_1_30_1_62", 
                "X_2_1_1_1_1_1_34_1_1_31_1_62", 
                "X_2_1_1_1_1_1_16_1_1_32_1_62", 
                "X_2_1_1_1_1_1_35_1_1_33_1_62", 
                "X_2_1_1_1_1_1_17_1_1_34_1_62", 
                "X_2_1_1_1_1_1_36_1_1_35_1_62", 
                "X_2_1_1_1_1_1_18_1_1_36_1_62"
            ], 
            "CsaImage.ProtocolSliceNumber": [
                0, 
                1, 
                2, 
                3, 
                4, 
                5, 
                6, 
                7, 
                8, 
                9, 
                10, 
                11, 
                12, 
                13, 
                14, 
                15, 
                16, 
                17, 
                18, 
                19, 
                20, 
                21, 
                22, 
                23, 
                24, 
                25, 
                26, 
                27, 
                28, 
                29, 
                30, 
                31, 
                32, 
                33, 
                34, 
                35
            ], 
            "CsaImage.SliceMeasurementDuration": [
                54085.0, 
                54082.5, 
                54085.0, 
                54085.0, 
                54085.0, 
                54082.5, 
                54085.0, 
                54085.0, 
                54085.0, 
                54082.5, 
                54082.5, 
                54085.0, 
                54085.0, 
                54082.5, 
                54082.5, 
                54085.0, 
                54085.0, 
                54082.5, 
                54082.5, 
                54085.0, 
                54085.0, 
                54085.0, 
                54082.5, 
                54085.0, 
                54085.0, 
                54085.0, 
                54082.5, 
                54085.0, 
                54085.0, 
                54085.0, 
                54082.5, 
                54085.0, 
                54085.0, 
                54085.0, 
                54082.5, 
                54085.0
            ], 
            "CsaImage.SlicePosition_PCS": [
                [
                    -102.98692758, 
                    -124.46181012, 
                    -24.67574816
                ], 
                [
                    -103.0078714, 
                    -124.11180783, 
                    -21.69630557
                ], 
                [
                    -103.02881516, 
                    -123.76180363, 
                    -18.71686869
                ], 
                [
                    -103.04975893, 
                    -123.41179943, 
                    -15.737428
                ], 
                [
                    -103.07070269, 
                    -123.06179524, 
                    -12.75798922
                ], 
                [
                    -103.09164645, 
                    -122.71179295, 
                    -9.77855044
                ], 
                [
                    -103.11259033, 
                    -122.36178875, 
                    -6.79910975
                ], 
                [
                    -103.13353409, 
                    -122.01178456, 
                    -3.81967097
                ], 
                [
                    -103.15447785, 
                    -121.66178227, 
                    -0.84023219
                ], 
                [
                    -103.17542161, 
                    -121.31177807, 
                    2.13920755
                ], 
                [
                    -103.19636537, 
                    -120.96177388, 
                    5.11864681
                ], 
                [
                    -103.21730913, 
                    -120.61176968, 
                    8.09808606
                ], 
                [
                    -103.23825301, 
                    -120.26176739, 
                    11.07752544
                ], 
                [
                    -103.25919677, 
                    -119.91176319, 
                    14.05696482
                ], 
                [
                    -103.28014053, 
                    -119.561759, 
                    17.03640432
                ], 
                [
                    -103.30108429, 
                    -119.2117548, 
                    20.0158431
                ], 
                [
                    -103.32202805, 
                    -118.86175251, 
                    22.99528283
                ], 
                [
                    -103.34297182, 
                    -118.51174832, 
                    25.97472257
                ], 
                [
                    -103.3639157, 
                    -118.16174412, 
                    28.95416135
                ], 
                [
                    -103.38485946, 
                    -117.81173992, 
                    31.93360013
                ], 
                [
                    -103.40580322, 
                    -117.46173764, 
                    34.91304082
                ], 
                [
                    -103.42674698, 
                    -117.11173344, 
                    37.8924796
                ], 
                [
                    -103.44769074, 
                    -116.7617302, 
                    40.87191839
                ], 
                [
                    -103.4686345, 
                    -116.411726, 
                    43.85135907
                ], 
                [
                    -103.48957838, 
                    -116.06172276, 
                    46.83079786
                ], 
                [
                    -103.51052214, 
                    -115.71171856, 
                    49.81023664
                ], 
                [
                    -103.5314659, 
                    -115.36171532, 
                    52.78967542
                ], 
                [
                    -103.55240966, 
                    -115.01171112, 
                    55.7691142
                ], 
                [
                    -103.57335342, 
                    -114.66170788, 
                    58.74855298
                ], 
                [
                    -103.59429718, 
                    -114.31170369, 
                    61.72799558
                ], 
                [
                    -103.61524106, 
                    -113.96170044, 
                    64.70743436
                ], 
                [
                    -103.63618483, 
                    -113.61169625, 
                    67.68687314
                ], 
                [
                    -103.65712859, 
                    -113.261693, 
                    70.66631192
                ], 
                [
                    -103.67807235, 
                    -112.91168976, 
                    73.64575071
                ], 
                [
                    -103.69901611, 
                    -112.56168557, 
                    76.62518949
                ], 
                [
                    -103.71995987, 
                    -112.21168232, 
                    79.60462827
                ]
            ], 
            "CsaImage.TimeAfterStart": [
                0.6075, 
                0.405, 
                0.6175, 
                0.415, 
                0.63, 
                0.4275, 
                0.64, 
                0.4375, 
                0.6525, 
                0.45, 
                0.6625, 
                0.46, 
                0.675, 
                0.4725, 
                0.685, 
                0.4825, 
                0.6975, 
                0.495, 
                0.7075, 
                0.505, 
                0.7175, 
                0.5175, 
                0.73, 
                0.5275, 
                0.74, 
                0.54, 
                0.7525, 
                0.55, 
                0.7625, 
                0.5625, 
                0.775, 
                0.5725, 
                0.785, 
                0.585, 
                0.7975, 
                0.595
            ], 
            "ImagePositionPatient": [
                [
                    -102.98692758293, 
                    -124.46181011507, 
                    -24.675748164557
                ], 
                [
                    -103.00787140341, 
                    -124.11180782625, 
                    -21.696305568121
                ], 
                [
                    -103.02881516428, 
                    -123.76180363008, 
                    -18.716868693731
                ], 
                [
                    -103.04975892515, 
                    -123.41179943391, 
                    -15.737428004644
                ], 
                [
                    -103.07070268602, 
                    -123.06179523775, 
                    -12.757989222906
                ], 
                [
                    -103.0916464469, 
                    -122.71179294893, 
                    -9.7785504411679
                ], 
                [
                    -103.11259032698, 
                    -122.36178875276, 
                    -6.799109752081
                ], 
                [
                    -103.13353408785, 
                    -122.01178455659, 
                    -3.8196709703427
                ], 
                [
                    -103.15447784872, 
                    -121.66178226778, 
                    -0.8402321886044
                ], 
                [
                    -103.17542160959, 
                    -121.31177807161, 
                    2.1392075468082
                ], 
                [
                    -103.19636537046, 
                    -120.96177387544, 
                    5.1186468053836
                ], 
                [
                    -103.21730913134, 
                    -120.61176967927, 
                    8.0980860639591
                ], 
                [
                    -103.23825301142, 
                    -120.26176739046, 
                    11.077525441744
                ], 
                [
                    -103.25919677229, 
                    -119.91176319429, 
                    14.056964819529
                ], 
                [
                    -103.28014053316, 
                    -119.56175899812, 
                    17.036404316523
                ], 
                [
                    -103.30108429403, 
                    -119.21175480196, 
                    20.015843098261
                ], 
                [
                    -103.3220280549, 
                    -118.86175251314, 
                    22.995282833673
                ], 
                [
                    -103.34297181578, 
                    -118.51174831697, 
                    25.974722569086
                ], 
                [
                    -103.36391569586, 
                    -118.1617441208, 
                    28.954161350824
                ], 
                [
                    -103.38485945673, 
                    -117.81173992464, 
                    31.933600132563
                ], 
                [
                    -103.4058032176, 
                    -117.46173763582, 
                    34.91304082165
                ], 
                [
                    -103.42674697847, 
                    -117.11173343965, 
                    37.892479603388
                ], 
                [
                    -103.44769073935, 
                    -116.76173019716, 
                    40.871918385126
                ], 
                [
                    -103.46863450022, 
                    -116.41172600099, 
                    43.851359074213
                ], 
                [
                    -103.4895783803, 
                    -116.0617227585, 
                    46.830797855951
                ], 
                [
                    -103.51052214117, 
                    -115.71171856233, 
                    49.81023663769
                ], 
                [
                    -103.53146590204, 
                    -115.36171531984, 
                    52.789675419428
                ], 
                [
                    -103.55240966291, 
                    -115.01171112367, 
                    55.769114201166
                ], 
                [
                    -103.57335342379, 
                    -114.66170788118, 
                    58.748552982904
                ], 
                [
                    -103.59429718466, 
                    -114.31170368501, 
                    61.72799557934
                ], 
                [
                    -103.61524106474, 
                    -113.96170044252, 
                    64.707434361078
                ], 
                [
                    -103.63618482561, 
                    -113.61169624635, 
                    67.686873142816
                ], 
                [
                    -103.65712858648, 
                    -113.26169300386, 
                    70.666311924555
                ], 
                [
                    -103.67807234735, 
                    -112.91168976137, 
                    73.645750706293
                ], 
                [
                    -103.69901610823, 
                    -112.5616855652, 
                    76.625189488031
                ], 
                [
                    -103.7199598691, 
                    -112.21168232271, 
                    79.60462826977
                ]
            ], 
            "InstanceCreationTime": [
                "152324.093000", 
                "152321.453000", 
                "152324.093000", 
                "152321.453000", 
                "152324.093000", 
                "152321.453000", 
                "152324.093000", 
                "152321.453000", 
                "152324.093000", 
                "152321.453000", 
                "152324.093000", 
                "152321.453000", 
                "152324.093000", 
                "152321.468000", 
                "152324.109000", 
                "152321.468000", 
                "152324.109000", 
                "152321.468000", 
                "152324.109000", 
                "152321.468000", 
                "152324.109000", 
                "152321.468000", 
                "152324.109000", 
                "152324.078000", 
                "152324.109000", 
                "152324.078000", 
                "152324.109000", 
                "152324.078000", 
                "152324.125000", 
                "152324.078000", 
                "152324.125000", 
                "152324.078000", 
                "152324.125000", 
                "152324.078000", 
                "152324.125000", 
                "152324.093000"
            ], 
            "InstanceNumber": [
                1, 
                2, 
                3, 
                4, 
                5, 
                6, 
                7, 
                8, 
                9, 
                10, 
                11, 
                12, 
                13, 
                14, 
                15, 
                16, 
                17, 
                18, 
                19, 
                20, 
                21, 
                22, 
                23, 
                24, 
                25, 
                26, 
                27, 
                28, 
                29, 
                30, 
                31, 
                32, 
                33, 
                34, 
                35, 
                36
            ], 
            "LargestImagePixelValue": [
                4090, 
                4093, 
                4084, 
                4091, 
                4093, 
                4088, 
                4092, 
                4092, 
                4089, 
                4092, 
                4090, 
                4092, 
                4089, 
                4089, 
                4092, 
                4094, 
                4094, 
                4075, 
                4092, 
                4083, 
                4093, 
                4094, 
                4088, 
                4087, 
                4086, 
                4094, 
                4094, 
                4089, 
                4094, 
                4094, 
                4089, 
                4092, 
                4091, 
                4093, 
                4094, 
                4094
            ], 
            "SliceLocation": [
                -38.308350549893, 
                -35.30834747802, 
                -32.308349866866, 
                -29.30834846716, 
                -26.30834896173, 
                -23.308349678827, 
                -20.308348278288, 
                -17.308348772858, 
                -14.308349489954, 
                -11.308349037386, 
                -8.3083490583872, 
                -5.3083490793881, 
                -2.3083492036909, 
                0.69165089370038, 
                3.691651109484, 
                6.6916506149139, 
                9.6916508449557, 
                12.691651297524, 
                15.691650803786, 
                18.691650309216, 
                21.691651486396, 
                24.691650991826, 
                27.691650385993, 
                30.691651785699, 
                33.691651180698, 
                36.691650686128, 
                39.691650080295, 
                42.691649585725, 
                45.691648979891, 
                48.691652273874, 
                51.691651668873, 
                54.691651174303, 
                57.69165056847, 
                60.691649962637, 
                63.691649468067, 
                66.691648862233
            ], 
            "SmallestImagePixelValue": [
                6, 
                3, 
                3, 
                2, 
                5, 
                9, 
                2, 
                5, 
                10, 
                8, 
                9, 
                7, 
                10, 
                6, 
                5, 
                2, 
                1, 
                26, 
                3, 
                2, 
                1, 
                3, 
                1, 
                2, 
                6, 
                2, 
                1, 
                2, 
                0, 
                1, 
                2, 
                2, 
                0, 
                0, 
                0, 
                1
            ], 
            "WindowCenter": [
                -354.0, 
                -326.0, 
                -294.0, 
                -308.0, 
                -282.0, 
                -240.0, 
                -196.0, 
                -170.0, 
                -168.0, 
