{
  "AcquisitionMatrixPE": 68,
  "AcquisitionNumber": 1,
  "AcquisitionTime": "12:32:57.042500",
  "BandwidthPerPixelPhaseEncode": 31.289,
  "BaseResolution": 68,
  "CoilString": "C:HEA;HEP",
  "ConversionSoftware": "dcm2niix",
  "ConversionSoftwareVersion": "v1.0.20190902",
  "DerivedVendorReportedEchoSpacing": 0.000470002,
  "DeviceSerialNumber": "35450",
  "DwellTime": 3e-06,
  "EchoTime": 0.023,
  "EffectiveEchoSpacing": 0.000470002,
  "FlipAngle": 76,
  "ImageOrientationPatientDICOM": [0.99961, -0.000389871, -0.0279189, 2.40836e-08, 0.999903, -0.0139622],
  "ImageType": [
    "ORIGINAL",
    "PRIMARY",
    "M",
    "ND",
    "MOSAIC"
],
  "ImagingFrequency": 123.219,
  "InPlanePhaseEncodingDirectionDICOM": "COL",
  "InstitutionAddress": "Univeristy_Ave._197_Newark_North_East_US_07102-1814",
  "InstitutionName": "RUBIC",
  "InstitutionalDepartmentName": "Department",
  "MRAcquisitionType": "2D",
  "MagneticFieldStrength": 3,
  "Manufacturer": "Siemens",
  "ManufacturersModelName": "TrioTim",
  "Modality": "MR",
  "PartialFourier": 1,
  "PatientPosition": "HFS",
  "PercentPhaseFOV": 100,
  "PhaseEncodingDirection": "j-",
  "PhaseEncodingSteps": 68,
  "PhaseResolution": 1,
  "PixelBandwidth": 2451,
  "ProcedureStepDescription": "Krekelberg_David",
  "ProtocolName": "ep2d_bold_RestEPI_3",
  "PulseSequenceDetails": "%SiemensSeq%_ep2d_bold",
  "ReceiveCoilName": "HeadMatrix",
  "ReconMatrixPE": 68,
  "RepetitionTime": 2,
  "SAR": 0.184111,
  "ScanOptions": "FS",
  "ScanningSequence": "EP",
  "SequenceName": "_epfid2d1_68",
  "SequenceVariant": "SK",
  "SeriesDescription": "ep2d_bold_RestEPI_3",
  "SeriesNumber": 11,
  "ShimSetting": [1846, -631, -7541, 786, 10, -167, -415, -56],
  "SliceThickness": 2.5,
  "SliceTiming": [1.9525, 1.8975, 1.8425, 1.785, 1.73, 1.675, 1.6175, 1.5625, 1.5075, 1.45, 1.395, 1.34, 1.2825, 1.2275, 1.1725, 1.1175, 1.06, 1.005, 0.95, 0.8925, 0.8375, 0.7825, 0.725, 0.67, 0.615, 0.56, 0.5025, 0.4475, 0.3925, 0.335, 0.28, 0.225, 0.1675, 0.1125, 0.0575, 0],
  "SoftwareVersions": "syngo_MR_B19",
  "SpacingBetweenSlices": 3,
  "StationName": "MRC35450",
  "TaskName": "rest",
  "TotalReadoutTime": 0.0314901,
  "TxRefAmp": 354.428,
  "dcmmeta_affine": [
    [-2.9988303184509277, 7.225073517247438e-08, -0.08376491814851761, 103.42611694335938],
    [0.0011696132132783532, 2.9997074604034424, -0.04187021031975746, -74.56857299804688],
    [-0.08375675231218338, 0.04188654199242592, 2.998538017272949, -46.263179779052734],
    [0.0, 0.0, 0.0, 1.0]
],
  "dcmmeta_reorient_transform": [
    [0.0, -1.0, 0.0, 67.0],
    [1.0, 0.0, 0.0, 0.0],
    [0.0, 0.0, 1.0, 0.0],
    [0.0, 0.0, 0.0, 1.0]
],
  "dcmmeta_shape": [68, 68, 36, 240],
  "dcmmeta_slice_dim": 2,
  "dcmmeta_version": 0.6,
  "global": {
    "const": {
      "AcquisitionMatrix": [68, 0, 0, 68],
      "AngioFlag": "N",
      "BitsAllocated": 16,
      "BitsStored": 12,
      "Columns": 408,
      "EchoNumbers": 1,
      "EchoTime": 23.0,
      "EchoTrainLength": 1,
      "FlipAngle": 76.0,
      "HighBit": 11,
      "ImageOrientationPatient": [0.99961011500728, -0.0003898710552, -0.027918917882, 2.4083578e-08, 0.99990252400351, -0.0139621807539],
      "ImagePositionPatient": [-613.22729112042, -636.16328573389, -22.097420588902],
      "ImageType": [
        "ORIGINAL",
        "PRIMARY",
        "M",
        "ND",
        "MOSAIC"
],
      "ImagedNucleus": "1H",
      "ImagingFrequency": 123.218555,
      "InPlanePhaseEncodingDirection": "COL",
      "MRAcquisitionType": "2D",
      "MagneticFieldStrength": 3.0,
      "Manufacturer": "SIEMENS",
      "ManufacturerModelName": "TrioTim",
      "Modality": "MR",
      "NumberOfAverages": 1.0,
      "NumberOfPhaseEncodingSteps": 68,
      "PercentPhaseFieldOfView": 100.0,
      "PercentSampling": 100.0,
      "PerformedProcedureStepStartTime": "112717.109000",
      "PhotometricInterpretation": "MONOCHROME2",
      "PixelBandwidth": 2451.0,
      "PixelRepresentation": 0,
      "PixelSpacing": [3.0, 3.0],
      "ProtocolName": "ep2d_bold_RestEPI_3",
      "RepetitionTime": 2000.0,
      "Rows": 408,
      "SAR": 0.18411128728559,
      "SamplesPerPixel": 1,
      "ScanOptions": "FS",
      "ScanningSequence": "EP",
      "SequenceName": "*epfid2d1_68",
      "SequenceVariant": "SK",
      "SeriesDescription": "ep2d_bold_RestEPI_3",
      "SeriesNumber": 11,
      "SeriesTime": "123343.906000",
      "SliceLocation": -48.087726922221,
      "SliceThickness": 2.5,
      "SmallestImagePixelValue": 0,
      "SoftwareVersions": "syngo MR B19",
      "SpacingBetweenSlices": 2.9999999582892,
      "SpecificCharacterSet": "ISO_IR 100",
      "StudyID": "1",
      "StudyTime": "112717.000000",
      "TransmitCoilName": "Body",
      "VariableFlipAngleFlag": "N",
      "WindowCenterWidthExplanation": "Algo1",
      "dBdt": 0.0},
    "slices": {}
  },
  "time": {
    "samples": {
      "AcquisitionNumber": [1, 2, 3, 4, 5, 6, 7, 8, 9, 10, 11, 12, 13, 14, 15, 16, 17, 18, 19, 20, 21, 22, 23, 24, 25, 26, 27, 28, 29, 30, 31, 32, 33, 34, 35, 36, 37, 38, 39, 40, 41, 42, 43, 44, 45, 46, 47, 48, 49, 50, 51, 52, 53, 54, 55, 56, 57, 58, 59, 60, 61, 62, 63, 64, 65, 66, 67, 68, 69, 70, 71, 72, 73, 74, 75, 76, 77, 78, 79, 80, 81, 82, 83, 84, 85, 86, 87, 88, 89, 90, 91, 92, 93, 94, 95, 96, 97, 98, 99, 100, 101, 102, 103, 104, 105, 106, 107, 108, 109, 110, 111, 112, 113, 114, 115, 116, 117, 118, 119, 120, 121, 122, 123, 124, 125, 126, 127, 128, 129, 130, 131, 132, 133, 134, 135, 136, 137, 138, 139, 140, 141, 142, 143, 144, 145, 146, 147, 148, 149, 150, 151, 152, 153, 154, 155, 156, 157, 158, 159, 160, 161, 162, 163, 164, 165, 166, 167, 168, 169, 170, 171, 172, 173, 174, 175, 176, 177, 178, 179, 180, 181, 182, 183, 184, 185, 186, 187, 188, 189, 190, 191, 192, 193, 194, 195, 196, 197, 198, 199, 200, 201, 202, 203, 204, 205, 206, 207, 208, 209, 210, 211, 212, 213, 214, 215, 216, 217, 218, 219, 220, 221, 222, 223, 224, 225, 226, 227, 228, 229, 230, 231, 232, 233, 234, 235, 236, 237, 238, 239, 240],
      "AcquisitionTime": ["123257.042500", "123259.050000", "123301.060000", "123303.067500", "123305.075000", "123307.082500", "123309.090000", "123311.100000", "123313.107500", "123315.115000", "123317.122500", "123319.130000", "123321.140000", "123323.147500", "123325.155000", "123327.162500", "123329.172500", "123331.180000", "123333.187500", "123335.195000", "123337.202500", "123339.212500", "123341.220000", "123343.227500", "123345.235000", "123347.242500", "123349.252500", "123351.260000", "123353.267500", "123355.275000", "123357.285000", "123359.292500", "123401.300000", "123403.307500", "123405.315000", "123407.325000", "123409.332500", "123411.340000", "123413.347500", "123415.355000", "123417.365000", "123419.372500", "123421.380000", "123423.387500", "123425.397500", "123427.405000", "123429.412500", "123431.420000", "123433.427500", "123435.437500", "123437.445000", "123439.452500", "123441.460000", "123443.467500", "123445.477500", "123447.485000", "123449.492500", "123451.500000", "123453.510000", "123455.517500", "123457.525000", "123459.532500", "123501.540000", "123503.550000", "123505.557500", "123507.565000", "123509.572500", "123511.580000", "123513.590000", "123515.597500", "123517.605000", "123519.612500", "123521.620000", "123523.630000", "123525.637500", "123527.645000", "123529.652500", "123531.662500", "123533.670000", "123535.677500", "123537.685000", "123539.692500", "123541.702500", "123543.710000", "123545.717500", "123547.725000", "123549.732500", "123551.742500", "123553.750000", "123555.757500", "123557.765000", "123559.775000", "123601.782500", "123603.790000", "123605.797500", "123607.805000", "123609.815000", "123611.822500", "123613.830000", "123615.837500", "123617.845000", "123619.855000", "123621.862500", "123623.870000", "123625.877500", "123627.887500", "123629.895000", "123631.902500", "123633.910000", "123635.917500", "123637.927500", "123639.935000", "123641.942500", "123643.950000", "123645.957500", "123647.967500", "123649.975000", "123651.982500", "123653.990000", "123655.997500", "123658.007500", "123700.015000", "123702.022500", "123704.030000", "123706.040000", "123708.047500", "123710.055000", "123712.062500", "123714.070000", "123716.080000", "123718.087500", "123720.095000", "123722.102500", "123724.110000", "123726.120000", "123728.127500", "123730.135000", "123732.142500", "123734.152500", "123736.160000", "123738.167500", "123740.175000", "123742.182500", "123744.192500", "123746.200000", "123748.207500", "123750.215000", "123752.222500", "123754.232500", "123756.240000", "123758.247500", "123800.255000", "123802.265000", "123804.272500", "123806.280000", "123808.287500", "123810.295000", "123812.305000", "123814.312500", "123816.320000", "123818.327500", "123820.335000", "123822.345000", "123824.352500", "123826.360000", "123828.367500", "123830.375000", "123832.385000", "123834.392500", "123836.400000", "123838.407500", "123840.417500", "123842.425000", "123844.432500", "123846.440000", "123848.447500", "123850.457500", "123852.465000", "123854.472500", "123856.480000", "123858.487500", "123900.497500", "123902.505000", "123904.512500", "123906.520000", "123908.530000", "123910.537500", "123912.545000", "123914.552500", "123916.560000", "123918.570000", "123920.577500", "123922.585000", "123924.592500", "123926.600000", "123928.610000", "123930.617500", "123932.625000", "123934.632500", "123936.642500", "123938.650000", "123940.657500", "123942.665000", "123944.672500", "123946.682500", "123948.690000", "123950.697500", "123952.705000", "123954.712500", "123956.722500", "123958.730000", "124000.737500", "124002.745000", "124004.752500", "124006.762500", "124008.770000", "124010.777500", "124012.785000", "124014.795000", "124016.802500", "124018.810000", "124020.817500", "124022.825000", "124024.835000", "124026.842500", "124028.850000", "124030.857500", "124032.865000", "124034.875000", "124036.882500", "124038.890000", "124040.897500", "124042.907500", "124044.915000", "124046.922500", "124048.930000", "124050.937500", "124052.947500", "124054.955000", "124056.962500"],
      "ContentTime": ["123343.906000", "123343.906000", "123343.906000", "123343.921000", "123343.921000", "123343.921000", "123343.921000", "123343.921000", "123343.921000", "123343.921000", "123343.937000", "123343.937000", "123343.937000", "123343.937000", "123343.937000", "123343.937000", "123343.937000", "123343.953000", "123343.953000", "123343.953000", "123343.953000", "123343.953000", "123343.953000", "123343.953000", "123423.890000", "123423.906000", "123423.906000", "123423.906000", "123423.906000", "123423.906000", "123423.906000", "123423.906000", "123423.921000", "123423.921000", "123423.921000", "123423.921000", "123423.921000", "123423.921000", "123423.921000", "123423.937000", "123423.937000", "123423.937000", "123423.937000", "123423.937000", "123503.890000", "123503.906000", "123503.906000", "123503.906000", "123503.906000", "123503.906000", "123503.906000", "123503.906000", "123503.906000", "123503.921000", "123503.921000", "123503.921000", "123503.921000", "123503.921000", "123503.921000", "123503.937000", "123503.937000", "123503.937000", "123503.937000", "123503.937000", "123543.890000", "123543.906000", "123543.906000", "123543.906000", "123543.906000", "123543.906000", "123543.906000", "123543.906000", "123543.906000", "123543.921000", "123543.921000", "123543.921000", "123543.921000", "123543.921000", "123543.921000", "123543.921000", "123543.937000", "123543.937000", "123543.937000", "123543.937000", "123623.890000", "123623.906000", "123623.906000", "123623.906000", "123623.906000", "123623.906000", "123623.906000", "123623.906000", "123623.921000", "123623.921000", "123623.921000", "123623.921000", "123623.921000", "123623.937000", "123623.937000", "123623.937000", "123623.937000", "123623.937000", "123623.937000", "123623.937000", "123703.890000", "123703.906000", "123703.906000", "123703.906000", "123703.906000", "123703.906000", "123703.906000", "123703.906000", "123703.921000", "123703.921000", "123703.921000", "123703.921000", "123703.921000", "123703.921000", "123703.921000", "123703.921000", "123703.937000", "123703.937000", "123703.937000", "123703.937000", "123743.890000", "123743.906000", "123743.906000", "123743.906000", "123743.906000", "123743.906000", "123743.906000", "123743.906000", "123743.921000", "123743.921000", "123743.921000", "123743.921000", "123743.921000", "123743.921000", "123743.921000", "123743.921000", "123743.937000", "123743.937000", "123743.937000", "123743.937000", "123823.890000", "123823.906000", "123823.906000", "123823.906000", "123823.906000", "123823.906000", "123823.906000", "123823.906000", "123823.921000", "123823.921000", "123823.921000", "123823.921000", "123823.921000", "123823.921000", "123823.921000", "123823.921000", "123823.937000", "123823.937000", "123823.937000", "123823.937000", "123903.890000", "123903.906000", "123903.906000", "123903.906000", "123903.906000", "123903.906000", "123903.906000", "123903.906000", "123903.921000", "123903.921000", "123903.921000", "123903.921000", "123903.921000", "123903.921000", "123903.921000", "123903.921000", "123903.937000", "123903.937000", "123903.937000", "123903.937000", "123923.890000", "123923.906000", "123923.906000", "123923.906000", "123923.906000", "123923.906000", "123923.906000", "123923.906000", "123923.921000", "123923.921000", "124003.890000", "124003.906000", "124003.906000", "124003.906000", "124003.906000", "124003.906000", "124003.906000", "124003.906000", "124003.906000", "124003.921000", "124003.921000", "124003.921000", "124003.921000", "124003.921000", "124003.921000", "124003.921000", "124003.937000", "124003.937000", "124003.937000", "124003.937000", "124043.890000", "124043.906000", "124043.906000", "124043.906000", "124043.906000", "124043.906000", "124043.906000", "124043.906000", "124043.921000", "124043.921000", "124043.921000", "124043.921000", "124043.921000", "124043.921000", "124043.921000", "124043.921000", "124043.937000", "124043.937000", "124043.937000", "124043.937000", "124055.718000", "124055.718000", "124055.718000", "124055.718000", "124055.718000", "124055.718000"],
      "InstanceCreationTime": ["123343.906000", "123343.906000", "123343.906000", "123343.921000", "123343.921000", "123343.921000", "123343.921000", "123343.921000", "123343.921000", "123343.921000", "123343.937000", "123343.937000", "123343.937000", "123343.937000", "123343.937000", "123343.937000", "123343.937000", "123343.953000", "123343.953000", "123343.953000", "123343.953000", "123343.953000", "123343.953000", "123343.953000", "123423.890000", "123423.906000", "123423.906000", "123423.906000", "123423.906000", "123423.906000", "123423.906000", "123423.906000", "123423.921000", "123423.921000", "123423.921000", "123423.921000", "123423.921000", "123423.921000", "123423.921000", "123423.937000", "123423.937000", "123423.937000", "123423.937000", "123423.937000", "123503.890000", "123503.906000", "123503.906000", "123503.906000", "123503.906000", "123503.906000", "123503.906000", "123503.906000", "123503.906000", "123503.921000", "123503.921000", "123503.921000", "123503.921000", "123503.921000", "123503.921000", "123503.937000", "123503.937000", "123503.937000", "123503.937000", "123503.937000", "123543.890000", "123543.906000", "123543.906000", "123543.906000", "123543.906000", "123543.906000", "123543.906000", "123543.906000", "123543.906000", "123543.921000", "123543.921000", "123543.921000", "123543.921000", "123543.921000", "123543.921000", "123543.921000", "123543.937000", "123543.937000", "123543.937000", "123543.937000", "123623.890000", "123623.906000", "123623.906000", "123623.906000", "123623.906000", "123623.906000", "123623.906000", "123623.906000", "123623.921000", "123623.921000", "123623.921000", "123623.921000", "123623.921000", "123623.937000", "123623.937000", "123623.937000", "123623.937000", "123623.937000", "123623.937000", "123623.937000", "123703.890000", "123703.906000", "123703.906000", "123703.906000", "123703.906000", "123703.906000", "123703.906000", "123703.906000", "123703.921000", "123703.921000", "123703.921000", "123703.921000", "123703.921000", "123703.921000", "123703.921000", "123703.921000", "123703.937000", "123703.937000", "123703.937000", "123703.937000", "123743.890000", "123743.906000", "123743.906000", "123743.906000", "123743.906000", "123743.906000", "123743.906000", "123743.906000", "123743.921000", "123743.921000", "123743.921000", "123743.921000", "123743.921000", "123743.921000", "123743.921000", "123743.921000", "123743.937000", "123743.937000", "123743.937000", "123743.937000", "123823.890000", "123823.906000", "123823.906000", "123823.906000", "123823.906000", "123823.906000", "123823.906000", "123823.906000", "123823.921000", "123823.921000", "123823.921000", "123823.921000", "123823.921000", "123823.921000", "123823.921000", "123823.921000", "123823.937000", "123823.937000", "123823.937000", "123823.937000", "123903.890000", "123903.906000", "123903.906000", "123903.906000", "123903.906000", "123903.906000", "123903.906000", "123903.906000", "123903.921000", "123903.921000", "123903.921000", "123903.921000", "123903.921000", "123903.921000", "123903.921000", "123903.921000", "123903.937000", "123903.937000", "123903.937000", "123903.937000", "123923.890000", "123923.906000", "123923.906000", "123923.906000", "123923.906000", "123923.906000", "123923.906000", "123923.906000", "123923.921000", "123923.921000", "124003.890000", "124003.906000", "124003.906000", "124003.906000", "124003.906000", "124003.906000", "124003.906000", "124003.906000", "124003.906000", "124003.921000", "124003.921000", "124003.921000", "124003.921000", "124003.921000", "124003.921000", "124003.921000", "124003.937000", "124003.937000", "124003.937000", "124003.937000", "124043.890000", "124043.906000", "124043.906000", "124043.906000", "124043.906000", "124043.906000", "124043.906000", "124043.906000", "124043.921000", "124043.921000", "124043.921000", "124043.921000", "124043.921000", "124043.921000", "124043.921000", "124043.921000", "124043.937000", "124043.937000", "124043.937000", "124043.937000", "124055.718000", "124055.718000", "124055.718000", "124055.718000", "124055.718000", "124055.718000"],
      "InstanceNumber": [1, 2, 3, 4, 5, 6, 7, 8, 9, 10, 11, 12, 13, 14, 15, 16, 17, 18, 19, 20, 21, 22, 23, 24, 25, 26, 27, 28, 29, 30, 31, 32, 33, 34, 35, 36, 37, 38, 39, 40, 41, 42, 43, 44, 45, 46, 47, 48, 49, 50, 51, 52, 53, 54, 55, 56, 57, 58, 59, 60, 61, 62, 63, 64, 65, 66, 67, 68, 69, 70, 71, 72, 73, 74, 75, 76, 77, 78, 79, 80, 81, 82, 83, 84, 85, 86, 87, 88, 89, 90, 91, 92, 93, 94, 95, 96, 97, 98, 99, 100, 101, 102, 103, 104, 105, 106, 107, 108, 109, 110, 111, 112, 113, 114, 115, 116, 117, 118, 119, 120, 121, 122, 123, 124, 125, 126, 127, 128, 129, 130, 131, 132, 133, 134, 135, 136, 137, 138, 139, 140, 141, 142, 143, 144, 145, 146, 147, 148, 149, 150, 151, 152, 153, 154, 155, 156, 157, 158, 159, 160, 161, 162, 163, 164, 165, 166, 167, 168, 169, 170, 171, 172, 173, 174, 175, 176, 177, 178, 179, 180, 181, 182, 183, 184, 185, 186, 187, 188, 189, 190, 191, 192, 193, 194, 195, 196, 197, 198, 199, 200, 201, 202, 203, 204, 205, 206, 207, 208, 209, 210, 211, 212, 213, 214, 215, 216, 217, 218, 219, 220, 221, 222, 223, 224, 225, 226, 227, 228, 229, 230, 231, 232, 233, 234, 235, 236, 237, 238, 239, 240],
      "LargestImagePixelValue": [1785, 1716, 1665, 1648, 1609, 1651, 1629, 1637, 1632, 1744, 1649, 1667, 1631, 1633, 1637, 1605, 1613, 1612, 1617, 1587, 1625, 1612, 1612, 1586, 1601, 1638, 1626, 1650, 1638, 1648, 1632, 1623, 1620, 1652, 1615, 1610, 1560, 1560, 1580, 1610, 1629, 1607, 1624, 1614, 1575, 1593, 1567, 1607, 1595, 1565, 1629, 1586, 1598, 1595, 1563, 1621, 1600, 1527, 1550, 1583, 1559, 1564, 1596, 1594, 1592, 1591, 1606, 1552, 1563, 1580, 1600, 1610, 1610, 1568, 1592, 1572, 1648, 1599, 1601, 1605, 1567, 1550, 1595, 1610, 1578, 1547, 1553, 1586, 1545, 1547, 1618, 1574, 1568, 1611, 1613, 1585, 1595, 1632, 1617, 1605, 1575, 1553, 1582, 1599, 1576, 1584, 1517, 1545, 1522, 1538, 1520, 1542, 1569, 1524, 1509, 1516, 1530, 1529, 1494, 1504, 1505, 1573, 1513, 1522, 1529, 1534, 1500, 1507, 1534, 1523, 1504, 1524, 1543, 1509, 1544, 1519, 1501, 1525, 1545, 1495, 1503, 1506, 1499, 1523, 1530, 1512, 1510, 1508, 1495, 1497, 1503, 1527, 1516, 1541, 1518, 1542, 1534, 1512, 1537, 1520, 1551, 1533, 1563, 1512, 1539, 1527, 1539, 1532, 1504, 1513, 1526, 1531, 1509, 1549, 1537, 1518, 1518, 1511, 1507, 1522, 1522, 1523, 1513, 1541, 1522, 1544, 1543, 1598, 1550, 1562, 1546, 1536, 1520, 1523, 1568, 1562, 1530, 1513, 1554, 1559, 1577, 1541, 1540, 1561, 1568, 1525, 1577, 1569, 1575, 1562, 1553, 1532, 1511, 1488, 1521, 1563, 1532, 1527, 1511, 1519, 1540, 1523, 1526, 1516, 1515, 1543, 1533, 1519, 1509, 1511, 1533, 1509, 1520, 1490, 1542, 1515, 1515, 1513, 1523, 1508],
      "WindowCenter": [733.0, 729.0, 726.0, 727.0, 725.0, 727.0, 725.0, 725.0, 725.0, 732.0, 727.0, 728.0, 726.0, 725.0, 725.0, 724.0, 725.0, 725.0, 725.0, 724.0, 725.0, 725.0, 725.0, 724.0, 724.0, 725.0, 725.0, 726.0, 727.0, 726.0, 726.0, 725.0, 726.0, 727.0, 727.0, 726.0, 724.0, 723.0, 723.0, 725.0, 724.0, 724.0, 725.0, 725.0, 724.0, 725.0, 724.0, 724.0, 724.0, 723.0, 725.0, 723.0, 724.0, 724.0, 724.0, 726.0, 725.0, 723.0, 723.0, 724.0, 723.0, 723.0, 725.0, 724.0, 724.0, 725.0, 725.0, 723.0, 724.0, 725.0, 725.0, 726.0, 726.0, 724.0, 725.0, 725.0, 727.0, 726.0, 725.0, 725.0, 724.0, 724.0, 725.0, 726.0, 724.0, 724.0, 724.0, 725.0, 724.0, 723.0, 726.0, 725.0, 725.0, 727.0, 727.0, 726.0, 726.0, 727.0, 726.0, 725.0, 726.0, 724.0, 725.0, 726.0, 726.0, 726.0, 725.0, 725.0, 724.0, 725.0, 724.0, 725.0, 726.0, 724.0, 723.0, 723.0, 724.0, 723.0, 722.0, 723.0, 723.0, 726.0, 725.0, 725.0, 725.0, 725.0, 724.0, 724.0, 725.0, 724.0, 723.0, 724.0, 725.0, 724.0, 725.0, 725.0, 725.0, 724.0, 725.0, 724.0, 724.0, 725.0, 726.0, 725.0, 725.0, 724.0, 724.0, 722.0, 723.0, 723.0, 724.0, 726.0, 726.0, 726.0, 726.0, 725.0, 724.0, 724.0, 728.0, 725.0, 724.0, 725.0, 726.0, 723.0, 725.0, 723.0, 723.0, 724.0, 722.0, 723.0, 724.0, 726.0, 726.0, 728.0, 728.0, 726.0, 726.0, 725.0, 724.0, 725.0, 725.0, 725.0, 727.0, 727.0, 726.0, 726.0, 727.0, 729.0, 728.0, 728.0, 727.0, 727.0, 725.0, 725.0, 727.0, 728.0, 727.0, 726.0, 728.0, 727.0, 728.0, 726.0, 726.0, 727.0, 727.0, 727.0, 729.0, 728.0, 729.0, 729.0, 728.0, 727.0, 726.0, 725.0, 727.0, 728.0, 728.0, 726.0, 726.0, 726.0, 727.0, 728.0, 727.0, 726.0, 726.0, 728.0, 728.0, 727.0, 726.0, 726.0, 727.0, 727.0, 727.0, 726.0, 727.0, 726.0, 727.0, 728.0, 728.0, 727.0],
      "WindowWidth": [1547.0, 1536.0, 1530.0, 1531.0, 1527.0, 1530.0, 1527.0, 1525.0, 1526.0, 1542.0, 1531.0, 1532.0, 1529.0, 1527.0, 1526.0, 1525.0, 1526.0, 1525.0, 1526.0, 1525.0, 1526.0, 1526.0, 1527.0, 1523.0, 1524.0, 1526.0, 1526.0, 1530.0, 1531.0, 1530.0, 1528.0, 1527.0, 1530.0, 1532.0, 1532.0, 1530.0, 1524.0, 1521.0, 1522.0, 1526.0, 1525.0, 1523.0, 1525.0, 1525.0, 1524.0, 1527.0, 1524.0, 1525.0, 1525.0, 1523.0, 1528.0, 1523.0, 1524.0, 1524.0, 1524.0, 1529.0, 1527.0, 1522.0, 1523.0, 1525.0, 1523.0, 1524.0, 1527.0, 1525.0, 1524.0, 1526.0, 1526.0, 1523.0, 1524.0, 1526.0, 1528.0, 1529.0, 1528.0, 1525.0, 1528.0, 1527.0, 1531.0, 1528.0, 1527.0, 1528.0, 1525.0, 1524.0, 1528.0, 1529.0, 1525.0, 1525.0, 1524.0, 1527.0, 1524.0, 1523.0, 1528.0, 1527.0, 1526.0, 1531.0, 1531.0, 1528.0, 1529.0, 1531.0, 1529.0, 1526.0, 1525.0, 1523.0, 1527.0, 1529.0, 1528.0, 1530.0, 1528.0, 1528.0, 1525.0, 1526.0, 1525.0, 1527.0, 1529.0, 1524.0, 1522.0, 1522.0, 1525.0, 1523.0, 1521.0, 1523.0, 1523.0, 1528.0, 1526.0, 1526.0, 1527.0, 1527.0, 1524.0, 1524.0, 1526.0, 1525.0, 1523.0, 1525.0, 1528.0, 1525.0, 1528.0, 1527.0, 1526.0, 1526.0, 1527.0, 1525.0, 1526.0, 1527.0, 1529.0, 1527.0, 1527.0, 1525.0, 1524.0, 1521.0, 1521.0, 1523.0, 1526.0, 1529.0, 1529.0, 1529.0, 1530.0, 1528.0, 1525.0, 1525.0, 1535.0, 1527.0, 1525.0, 1528.0, 1530.0, 1523.0, 1526.0, 1522.0, 1523.0, 1523.0, 1521.0, 1523.0, 1525.0, 1531.0, 1531.0, 1535.0, 1534.0, 1530.0, 1529.0, 1527.0, 1525.0, 1528.0, 1527.0, 1528.0, 1531.0, 1532.0, 1529.0, 1530.0, 1531.0, 1537.0, 1534.0, 1534.0, 1532.0, 1532.0, 1528.0, 1528.0, 1532.0, 1534.0, 1532.0, 1529.0, 1534.0, 1533.0, 1533.0, 1530.0, 1530.0, 1531.0, 1532.0, 1531.0, 1537.0, 1535.0, 1536.0, 1535.0, 1534.0, 1531.0, 1529.0, 1527.0, 1531.0, 1535.0, 1533.0, 1530.0, 1530.0, 1530.0, 1533.0, 1533.0, 1532.0, 1530.0, 1530.0, 1533.0, 1534.0, 1532.0, 1529.0, 1530.0, 1533.0, 1532.0, 1532.0, 1529.0, 1531.0, 1530.0, 1531.0, 1535.0, 1534.0, 1532.0]
    },
    "slices": {}
  }
}