{
  "AcquisitionMatrixPE": 68,
  "AcquisitionNumber": 1,
  "AcquisitionTime": "15:26:24.410000",
  "BandwidthPerPixelPhaseEncode": 31.289,
  "BaseResolution": 68,
  "CoilString": "C:HEA;HEP",
  "ConversionSoftware": "dcm2niix",
  "ConversionSoftwareVersion": "v1.0.20190902",
  "DerivedVendorReportedEchoSpacing": 0.000470002,
  "DeviceSerialNumber": "35450",
  "DwellTime": 3e-06,
  "EchoTime": 0.023,
  "EffectiveEchoSpacing": 0.000470002,
  "FlipAngle": 76,
  "ImageOrientationPatientDICOM": [0.999945, 0.00176443, 0.0103221, -4.64101e-08, 0.985703, -0.168489],
  "ImageType": [
    "ORIGINAL",
    "PRIMARY",
    "M",
    "ND",
    "MOSAIC"
],
  "ImagingFrequency": 123.219,
  "InPlanePhaseEncodingDirectionDICOM": "COL",
  "InstitutionAddress": "Univeristy_Ave._197_Newark_North_East_US_07102-1814",
  "InstitutionName": "RUBIC",
  "InstitutionalDepartmentName": "Department",
  "MRAcquisitionType": "2D",
  "MagneticFieldStrength": 3,
  "Manufacturer": "Siemens",
  "ManufacturersModelName": "TrioTim",
  "Modality": "MR",
  "PartialFourier": 1,
  "PatientPosition": "HFS",
  "PercentPhaseFOV": 100,
  "PhaseEncodingDirection": "j-",
  "PhaseEncodingSteps": 68,
  "PhaseResolution": 1,
  "PixelBandwidth": 2451,
  "ProcedureStepDescription": "Krekelberg_David",
  "ProtocolName": "ep2d_bold_CardGameEPI_1",
  "PulseSequenceDetails": "%SiemensSeq%_ep2d_bold",
  "ReceiveCoilName": "HeadMatrix",
  "ReconMatrixPE": 68,
  "RepetitionTime": 2,
  "SAR": 0.159503,
  "ScanOptions": "FS",
  "ScanningSequence": "EP",
  "SequenceName": "_epfid2d1_68",
  "SequenceVariant": "SK",
  "SeriesDescription": "ep2d_bold_CardGameEPI_1",
  "SeriesNumber": 6,
  "ShimSetting": [1915, -673, -7628, 549, 20, -268, -247, 6],
  "SliceThickness": 2.5,
  "SliceTiming": [1.95, 1.895, 1.84, 1.7825, 1.7275, 1.6725, 1.615, 1.56, 1.505, 1.45, 1.3925, 1.3375, 1.2825, 1.225, 1.17, 1.115, 1.0575, 1.0025, 0.9475, 0.8925, 0.835, 0.78, 0.725, 0.6675, 0.6125, 0.5575, 0.5, 0.445, 0.39, 0.3325, 0.2775, 0.2225, 0.1675, 0.11, 0.055, 0],
  "SoftwareVersions": "syngo_MR_B19",
  "SpacingBetweenSlices": 3,
  "StationName": "MRC35450",
  "TaskName": "cardgame",
  "TotalReadoutTime": 0.0314901,
  "TxRefAmp": 328.022,
  "dcmmeta_affine": [
    [-2.99983549118042, -1.3923023800543888e-07, 0.031415365636348724, 101.44464111328125],
    [-0.005293292459100485, 2.9571104049682617, -0.5054404139518738, -72.96623992919922],
    [0.03096620924770832, 0.5054681301116943, 2.9569482803344727, -34.903621673583984],
    [0.0, 0.0, 0.0, 1.0]
],
  "dcmmeta_reorient_transform": [
    [0.0, -1.0, 0.0, 67.0],
    [1.0, 0.0, 0.0, 0.0],
    [0.0, 0.0, 1.0, 0.0],
    [0.0, 0.0, 0.0, 1.0]
],
  "dcmmeta_shape": [68, 68, 36, 258],
  "dcmmeta_slice_dim": 2,
  "dcmmeta_version": 0.6,
  "global": {
    "const": {
      "AcquisitionMatrix": [68, 0, 0, 68],
      "AngioFlag": "N",
      "BitsAllocated": 16,
      "BitsStored": 12,
      "Columns": 408,
      "EchoNumbers": 1,
      "EchoTime": 23.0,
      "EchoTrainLength": 1,
      "FlipAngle": 76.0,
      "HighBit": 11,
      "ImageOrientationPatient": [0.99994516932492, 0.00176443083918, 0.0103220699264, -4.6410077e-08, 0.98570346854357, -0.168489382755],
      "ImagePositionPatient": [-611.41664653759, -628.76878330103, 79.62807303292],
      "ImageType": [
        "ORIGINAL",
        "PRIMARY",
        "M",
        "ND",
        "MOSAIC"
],
      "ImagedNucleus": "1H",
      "ImagingFrequency": 123.218521,
      "InPlanePhaseEncodingDirection": "COL",
      "MRAcquisitionType": "2D",
      "MagneticFieldStrength": 3.0,
      "Manufacturer": "SIEMENS",
      "ManufacturerModelName": "TrioTim",
      "Modality": "MR",
      "NumberOfAverages": 1.0,
      "NumberOfPhaseEncodingSteps": 68,
      "PercentPhaseFieldOfView": 100.0,
      "PercentSampling": 100.0,
      "PerformedProcedureStepStartTime": "150624.671000",
      "PhotometricInterpretation": "MONOCHROME2",
      "PixelBandwidth": 2451.0,
      "PixelRepresentation": 0,
      "PixelSpacing": [3.0, 3.0],
      "ProtocolName": "ep2d_bold_CardGameEPI_1",
      "RepetitionTime": 2000.0,
      "Rows": 408,
      "SAR": 0.15950270153561,
      "SamplesPerPixel": 1,
      "ScanOptions": "FS",
      "ScanningSequence": "EP",
      "SequenceName": "*epfid2d1_68",
      "SequenceVariant": "SK",
      "SeriesDescription": "ep2d_bold_CardGameEPI_1",
      "SeriesNumber": 6,
      "SeriesTime": "152710.968000",
      "SliceLocation": -21.047065439354,
      "SliceThickness": 2.5,
      "SmallestImagePixelValue": 0,
      "SoftwareVersions": "syngo MR B19",
      "SpacingBetweenSlices": 3.0000000426714,
      "SpecificCharacterSet": "ISO_IR 100",
      "StudyID": "1",
      "StudyTime": "150624.625000",
      "TransmitCoilName": "Body",
      "VariableFlipAngleFlag": "N",
      "WindowCenterWidthExplanation": "Algo1",
      "dBdt": 0.0},
    "slices": {}
  },
  "time": {
    "samples": {
      "AcquisitionNumber": [1, 2, 3, 4, 5, 6, 7, 8, 9, 10, 11, 12, 13, 14, 15, 16, 17, 18, 19, 20, 21, 22, 23, 24, 25, 26, 27, 28, 29, 30, 31, 32, 33, 34, 35, 36, 37, 38, 39, 40, 41, 42, 43, 44, 45, 46, 47, 48, 49, 50, 51, 52, 53, 54, 55, 56, 57, 58, 59, 60, 61, 62, 63, 64, 65, 66, 67, 68, 69, 70, 71, 72, 73, 74, 75, 76, 77, 78, 79, 80, 81, 82, 83, 84, 85, 86, 87, 88, 89, 90, 91, 92, 93, 94, 95, 96, 97, 98, 99, 100, 101, 102, 103, 104, 105, 106, 107, 108, 109, 110, 111, 112, 113, 114, 115, 116, 117, 118, 119, 120, 121, 122, 123, 124, 125, 126, 127, 128, 129, 130, 131, 132, 133, 134, 135, 136, 137, 138, 139, 140, 141, 142, 143, 144, 145, 146, 147, 148, 149, 150, 151, 152, 153, 154, 155, 156, 157, 158, 159, 160, 161, 162, 163, 164, 165, 166, 167, 168, 169, 170, 171, 172, 173, 174, 175, 176, 177, 178, 179, 180, 181, 182, 183, 184, 185, 186, 187, 188, 189, 190, 191, 192, 193, 194, 195, 196, 197, 198, 199, 200, 201, 202, 203, 204, 205, 206, 207, 208, 209, 210, 211, 212, 213, 214, 215, 216, 217, 218, 219, 220, 221, 222, 223, 224, 225, 226, 227, 228, 229, 230, 231, 232, 233, 234, 235, 236, 237, 238, 239, 240, 241, 242, 243, 244, 245, 246, 247, 248, 249, 250, 251, 252, 253, 254, 255, 256, 257, 258],
      "AcquisitionTime": ["152624.410000", "152626.420000", "152628.427500", "152630.435000", "152632.442500", "152634.450000", "152636.460000", "152638.467500", "152640.475000", "152642.482500", "152644.490000", "152646.500000", "152648.507500", "152650.515000", "152652.522500", "152654.530000", "152656.540000", "152658.547500", "152700.555000", "152702.562500", "152704.572500", "152706.580000", "152708.587500", "152710.595000", "152712.602500", "152714.612500", "152716.620000", "152718.627500", "152720.635000", "152722.642500", "152724.652500", "152726.660000", "152728.667500", "152730.675000", "152732.685000", "152734.692500", "152736.700000", "152738.707500", "152740.715000", "152742.725000", "152744.732500", "152746.740000", "152748.747500", "152750.755000", "152752.765000", "152754.772500", "152756.780000", "152758.787500", "152800.797500", "152802.805000", "152804.812500", "152806.820000", "152808.827500", "152810.837500", "152812.845000", "152814.852500", "152816.860000", "152818.867500", "152820.877500", "152822.885000", "152824.892500", "152826.900000", "152828.907500", "152830.917500", "152832.925000", "152834.932500", "152836.940000", "152838.950000", "152840.957500", "152842.965000", "152844.972500", "152846.980000", "152848.990000", "152850.997500", "152853.005000", "152855.012500", "152857.020000", "152859.030000", "152901.037500", "152903.045000", "152905.052500", "152907.062500", "152909.070000", "152911.077500", "152913.085000", "152915.092500", "152917.102500", "152919.110000", "152921.117500", "152923.125000", "152925.132500", "152927.142500", "152929.150000", "152931.157500", "152933.165000", "152935.175000", "152937.182500", "152939.190000", "152941.197500", "152943.205000", "152945.215000", "152947.222500", "152949.230000", "152951.237500", "152953.245000", "152955.255000", "152957.262500", "152959.270000", "153001.277500", "153003.287500", "153005.295000", "153007.302500", "153009.310000", "153011.317500", "153013.327500", "153015.335000", "153017.342500", "153019.350000", "153021.357500", "153023.367500", "153025.375000", "153027.382500", "153029.390000", "153031.397500", "153033.407500", "153035.415000", "153037.422500", "153039.430000", "153041.440000", "153043.447500", "153045.455000", "153047.462500", "153049.470000", "153051.480000", "153053.487500", "153055.495000", "153057.502500", "153059.510000", "153101.520000", "153103.527500", "153105.535000", "153107.542500", "153109.552500", "153111.560000", "153113.567500", "153115.575000", "153117.582500", "153119.592500", "153121.600000", "153123.607500", "153125.615000", "153127.622500", "153129.632500", "153131.640000", "153133.647500", "153135.655000", "153137.665000", "153139.672500", "153141.680000", "153143.687500", "153145.695000", "153147.705000", "153149.712500", "153151.720000", "153153.727500", "153155.735000", "153157.745000", "153159.752500", "153201.760000", "153203.767500", "153205.775000", "153207.785000", "153209.792500", "153211.800000", "153213.807500", "153215.817500", "153217.825000", "153219.832500", "153221.840000", "153223.847500", "153225.857500", "153227.865000", "153229.872500", "153231.880000", "153233.887500", "153235.897500", "153237.905000", "153239.912500", "153241.920000", "153243.930000", "153245.937500", "153247.945000", "153249.952500", "153251.960000", "153253.970000", "153255.977500", "153257.985000", "153259.992500", "153302.000000", "153304.010000", "153306.017500", "153308.025000", "153310.032500", "153312.042500", "153314.050000", "153316.057500", "153318.065000", "153320.072500", "153322.082500", "153324.090000", "153326.097500", "153328.105000", "153330.112500", "153332.122500", "153334.130000", "153336.137500", "153338.145000", "153340.152500", "153342.162500", "153344.170000", "153346.177500", "153348.185000", "153350.195000", "153352.202500", "153354.210000", "153356.217500", "153358.225000", "153400.235000", "153402.242500", "153404.250000", "153406.257500", "153408.265000", "153410.275000", "153412.282500", "153414.290000", "153416.297500", "153418.307500", "153420.315000", "153422.322500", "153424.330000", "153426.337500", "153428.347500", "153430.355000", "153432.362500", "153434.370000", "153436.377500", "153438.387500", "153440.395000", "153442.402500", "153444.410000", "153446.420000", "153448.427500", "153450.435000", "153452.442500", "153454.450000", "153456.460000", "153458.467500", "153500.475000"],
      "ContentTime": ["152710.984000", "152710.984000", "152710.984000", "152710.984000", "152710.984000", "152710.984000", "152711.000000", "152711.000000", "152711.000000", "152711.000000", "152711.000000", "152711.000000", "152711.000000", "152711.000000", "152711.015000", "152711.015000", "152711.015000", "152711.031000", "152711.031000", "152711.031000", "152711.031000", "152711.031000", "152711.031000", "152750.968000", "152750.968000", "152750.984000", "152750.984000", "152750.984000", "152750.984000", "152750.984000", "152751.000000", "152751.000000", "152751.000000", "152751.000000", "152751.000000", "152751.000000", "152751.000000", "152751.015000", "152751.015000", "152751.015000", "152751.015000", "152751.015000", "152751.015000", "152830.968000", "152830.968000", "152830.984000", "152830.984000", "152830.984000", "152830.984000", "152830.984000", "152830.984000", "152830.984000", "152831.000000", "152831.000000", "152831.000000", "152831.000000", "152831.000000", "152831.000000", "152831.000000", "152831.015000", "152831.015000", "152831.015000", "152831.015000", "152910.968000", "152910.968000", "152910.984000", "152910.984000", "152910.984000", "152910.984000", "152910.984000", "152910.984000", "152910.984000", "152911.000000", "152911.000000", "152911.000000", "152911.000000", "152911.000000", "152911.000000", "152911.000000", "152911.015000", "152911.015000", "152911.015000", "152911.015000", "152950.968000", "152950.968000", "152950.984000", "152950.984000", "152950.984000", "152950.984000", "152950.984000", "152950.984000", "152950.984000", "152951.000000", "152951.000000", "152951.000000", "152951.000000", "152951.000000", "152951.000000", "152951.000000", "152951.000000", "152951.015000", "152951.015000", "152951.015000", "153030.968000", "153030.968000", "153030.984000", "153030.984000", "153030.984000", "153030.984000", "153030.984000", "153030.984000", "153030.984000", "153031.000000", "153031.000000", "153031.000000", "153031.000000", "153031.000000", "153031.000000", "153031.000000", "153031.015000", "153031.015000", "153031.015000", "153031.015000", "153050.968000", "153050.984000", "153050.984000", "153050.984000", "153050.984000", "153050.984000", "153050.984000", "153050.984000", "153050.984000", "153051.000000", "153130.968000", "153130.968000", "153130.984000", "153130.984000", "153130.984000", "153130.984000", "153130.984000", "153130.984000", "153130.984000", "153131.000000", "153131.000000", "153131.000000", "153131.000000", "153131.000000", "153131.000000", "153131.000000", "153131.000000", "153131.015000", "153131.015000", "153131.015000", "153210.968000", "153210.968000", "153210.984000", "153210.984000", "153210.984000", "153210.984000", "153210.984000", "153210.984000", "153210.984000", "153211.000000", "153211.000000", "153211.000000", "153211.000000", "153211.000000", "153211.000000", "153211.000000", "153211.000000", "153211.015000", "153211.015000", "153211.015000", "153250.968000", "153250.968000", "153250.984000", "153250.984000", "153250.984000", "153250.984000", "153250.984000", "153250.984000", "153251.000000", "153251.000000", "153251.000000", "153251.000000", "153251.000000", "153251.000000", "153251.000000", "153251.000000", "153251.015000", "153251.015000", "153251.015000", "153251.015000", "153330.968000", "153330.968000", "153330.984000", "153330.984000", "153330.984000", "153330.984000", "153330.984000", "153330.984000", "153330.984000", "153331.000000", "153331.000000", "153331.000000", "153331.000000", "153331.000000", "153331.000000", "153331.000000", "153331.000000", "153331.015000", "153331.015000", "153331.015000", "153410.968000", "153410.968000", "153410.984000", "153410.984000", "153410.984000", "153410.984000", "153410.984000", "153410.984000", "153410.984000", "153411.000000", "153411.000000", "153411.000000", "153411.000000", "153411.000000", "153411.000000", "153411.000000", "153411.000000", "153411.015000", "153411.015000", "153411.015000", "153450.968000", "153450.968000", "153450.984000", "153450.984000", "153450.984000", "153450.984000", "153450.984000", "153450.984000", "153450.984000", "153451.000000", "153451.000000", "153451.000000", "153451.000000", "153451.000000", "153451.000000", "153451.000000", "153451.000000", "153451.015000", "153451.015000", "153451.015000", "153459.031000", "153459.031000", "153459.031000", "153459.031000", "153459.046000"],
      "InstanceCreationTime": ["152710.984000", "152710.984000", "152710.984000", "152710.984000", "152710.984000", "152710.984000", "152711.000000", "152711.000000", "152711.000000", "152711.000000", "152711.000000", "152711.000000", "152711.000000", "152711.000000", "152711.015000", "152711.015000", "152711.015000", "152711.031000", "152711.031000", "152711.031000", "152711.031000", "152711.031000", "152711.031000", "152750.968000", "152750.968000", "152750.984000", "152750.984000", "152750.984000", "152750.984000", "152750.984000", "152751.000000", "152751.000000", "152751.000000", "152751.000000", "152751.000000", "152751.000000", "152751.000000", "152751.015000", "152751.015000", "152751.015000", "152751.015000", "152751.015000", "152751.015000", "152830.968000", "152830.968000", "152830.984000", "152830.984000", "152830.984000", "152830.984000", "152830.984000", "152830.984000", "152830.984000", "152831.000000", "152831.000000", "152831.000000", "152831.000000", "152831.000000", "152831.000000", "152831.000000", "152831.015000", "152831.015000", "152831.015000", "152831.015000", "152910.968000", "152910.968000", "152910.984000", "152910.984000", "152910.984000", "152910.984000", "152910.984000", "152910.984000", "152910.984000", "152911.000000", "152911.000000", "152911.000000", "152911.000000", "152911.000000", "152911.000000", "152911.000000", "152911.015000", "152911.015000", "152911.015000", "152911.015000", "152950.968000", "152950.968000", "152950.984000", "152950.984000", "152950.984000", "152950.984000", "152950.984000", "152950.984000", "152950.984000", "152951.000000", "152951.000000", "152951.000000", "152951.000000", "152951.000000", "152951.000000", "152951.000000", "152951.000000", "152951.015000", "152951.015000", "152951.015000", "153030.968000", "153030.968000", "153030.984000", "153030.984000", "153030.984000", "153030.984000", "153030.984000", "153030.984000", "153030.984000", "153031.000000", "153031.000000", "153031.000000", "153031.000000", "153031.000000", "153031.000000", "153031.000000", "153031.015000", "153031.015000", "153031.015000", "153031.015000", "153050.968000", "153050.984000", "153050.984000", "153050.984000", "153050.984000", "153050.984000", "153050.984000", "153050.984000", "153050.984000", "153051.000000", "153130.968000", "153130.968000", "153130.984000", "153130.984000", "153130.984000", "153130.984000", "153130.984000", "153130.984000", "153130.984000", "153131.000000", "153131.000000", "153131.000000", "153131.000000", "153131.000000", "153131.000000", "153131.000000", "153131.000000", "153131.015000", "153131.015000", "153131.015000", "153210.968000", "153210.968000", "153210.984000", "153210.984000", "153210.984000", "153210.984000", "153210.984000", "153210.984000", "153210.984000", "153211.000000", "153211.000000", "153211.000000", "153211.000000", "153211.000000", "153211.000000", "153211.000000", "153211.000000", "153211.015000", "153211.015000", "153211.015000", "153250.968000", "153250.968000", "153250.984000", "153250.984000", "153250.984000", "153250.984000", "153250.984000", "153250.984000", "153251.000000", "153251.000000", "153251.000000", "153251.000000", "153251.000000", "153251.000000", "153251.000000", "153251.000000", "153251.015000", "153251.015000", "153251.015000", "153251.015000", "153330.968000", "153330.968000", "153330.984000", "153330.984000", "153330.984000", "153330.984000", "153330.984000", "153330.984000", "153330.984000", "153331.000000", "153331.000000", "153331.000000", "153331.000000", "153331.000000", "153331.000000", "153331.000000", "153331.000000", "153331.015000", "153331.015000", "153331.015000", "153410.968000", "153410.968000", "153410.984000", "153410.984000", "153410.984000", "153410.984000", "153410.984000", "153410.984000", "153410.984000", "153411.000000", "153411.000000", "153411.000000", "153411.000000", "153411.000000", "153411.000000", "153411.000000", "153411.000000", "153411.015000", "153411.015000", "153411.015000", "153450.968000", "153450.968000", "153450.984000", "153450.984000", "153450.984000", "153450.984000", "153450.984000", "153450.984000", "153450.984000", "153451.000000", "153451.000000", "153451.000000", "153451.000000", "153451.000000", "153451.000000", "153451.000000", "153451.000000", "153451.015000", "153451.015000", "153451.015000", "153459.031000", "153459.031000", "153459.031000", "153459.031000", "153459.046000"],
      "InstanceNumber": [1, 2, 3, 4, 5, 6, 7, 8, 9, 10, 11, 12, 13, 14, 15, 16, 17, 18, 19, 20, 21, 22, 23, 24, 25, 26, 27, 28, 29, 30, 31, 32, 33, 34, 35, 36, 37, 38, 39, 40, 41, 42, 43, 44, 45, 46, 47, 48, 49, 50, 51, 52, 53, 54, 55, 56, 57, 58, 59, 60, 61, 62, 63, 64, 65, 66, 67, 68, 69, 70, 71, 72, 73, 74, 75, 76, 77, 78, 79, 80, 81, 82, 83, 84, 85, 86, 87, 88, 89, 90, 91, 92, 93, 94, 95, 96, 97, 98, 99, 100, 101, 102, 103, 104, 105, 106, 107, 108, 109, 110, 111, 112, 113, 114, 115, 116, 117, 118, 119, 120, 121, 122, 123, 124, 125, 126, 127, 128, 129, 130, 131, 132, 133, 134, 135, 136, 137, 138, 139, 140, 141, 142, 143, 144, 145, 146, 147, 148, 149, 150, 151, 152, 153, 154, 155, 156, 157, 158, 159, 160, 161, 162, 163, 164, 165, 166, 167, 168, 169, 170, 171, 172, 173, 174, 175, 176, 177, 178, 179, 180, 181, 182, 183, 184, 185, 186, 187, 188, 189, 190, 191, 192, 193, 194, 195, 196, 197, 198, 199, 200, 201, 202, 203, 204, 205, 206, 207, 208, 209, 210, 211, 212, 213, 214, 215, 216, 217, 218, 219, 220, 221, 222, 223, 224, 225, 226, 227, 228, 229, 230, 231, 232, 233, 234, 235, 236, 237, 238, 239, 240, 241, 242, 243, 244, 245, 246, 247, 248, 249, 250, 251, 252, 253, 254, 255, 256, 257, 258],
      "LargestImagePixelValue": [2115, 1977, 1912, 1931, 1916, 1897, 1892, 1888, 1905, 1925, 1889, 1923, 1888, 1901, 1911, 1918, 1883, 1931, 1924, 1920, 1906, 1903, 1946, 1908, 1891, 1990, 1918, 1956, 1904, 1897, 1934, 1886, 1900, 1983, 1898, 1910, 1861, 1902, 1893, 1884, 1879, 1912, 1888, 1902, 1925, 1899, 1912, 1871, 1935, 1928, 1905, 1881, 1893, 1935, 1884, 1851, 1886, 1873, 1848, 1940, 1917, 1949, 1879, 1874, 1872, 1890, 1920, 1905, 1857, 1854, 1932, 1881, 1974, 1904, 1879, 1866, 1936, 1912, 1851, 1861, 1861, 1937, 1875, 1867, 1869, 1907, 1908, 1894, 1893, 1891, 1858, 1892, 2245, 1922, 1936, 1855, 1857, 1877, 1856, 1888, 1923, 1903, 1866, 1920, 1926, 1887, 1889, 1865, 1878, 1848, 1885, 1873, 1862, 1889, 1933, 1899, 1845, 1910, 1903, 1861, 1927, 1902, 1886, 1862, 1901, 1924, 1865, 1906, 1876, 1871, 1919, 1872, 1965, 1954, 1862, 1894, 1885, 1944, 1925, 1955, 1920, 1955, 1872, 1876, 1926, 1930, 1893, 1911, 1942, 1859, 1886, 1899, 1884, 1910, 1923, 1882, 1983, 1875, 1904, 1896, 1965, 1904, 1871, 1904, 1941, 1872, 1857, 1874, 1955, 1971, 1884, 1841, 1904, 1827, 1905, 1937, 1879, 1873, 1920, 1947, 1880, 1924, 1957, 1875, 1922, 1875, 1906, 1913, 1951, 1905, 1927, 1886, 1917, 1902, 1919, 1961, 1918, 1939, 1908, 1892, 1910, 1912, 1965, 1962, 1864, 1930, 1928, 1925, 1906, 1909, 1906, 1903, 1933, 1967, 1922, 1886, 1917, 1923, 1925, 1916, 2123, 1924, 1912, 1919, 1911, 1908, 1945, 1929, 1923, 1951, 1925, 1953, 1939, 1944, 1969, 1908, 1938, 1948, 1899, 1895, 1891, 1920, 1914, 1935, 1913, 1942, 1957, 1937, 1896, 1907, 1936, 1916, 1947, 1941, 1948, 1924, 1921, 1941],
      "WindowCenter": [798.0, 794.0, 792.0, 791.0, 791.0, 792.0, 792.0, 793.0, 793.0, 793.0, 793.0, 793.0, 794.0, 795.0, 796.0, 796.0, 795.0, 795.0, 796.0, 795.0, 795.0, 795.0, 795.0, 795.0, 795.0, 796.0, 799.0, 796.0, 795.0, 796.0, 795.0, 794.0, 795.0, 795.0, 794.0, 795.0, 794.0, 793.0, 794.0, 793.0, 795.0, 795.0, 794.0, 792.0, 793.0, 793.0, 795.0, 794.0, 795.0, 793.0, 794.0, 793.0, 794.0, 794.0, 794.0, 793.0, 794.0, 794.0, 794.0, 795.0, 795.0, 795.0, 796.0, 795.0, 795.0, 796.0, 795.0, 796.0, 795.0, 795.0, 795.0, 795.0, 795.0, 796.0, 794.0, 794.0, 795.0, 795.0, 796.0, 795.0, 796.0, 796.0, 801.0, 796.0, 796.0, 796.0, 796.0, 796.0, 796.0, 798.0, 796.0, 796.0, 798.0, 796.0, 797.0, 796.0, 796.0, 796.0, 796.0, 796.0, 796.0, 796.0, 796.0, 796.0, 797.0, 795.0, 795.0, 795.0, 795.0, 795.0, 796.0, 796.0, 796.0, 795.0, 797.0, 796.0, 796.0, 801.0, 796.0, 796.0, 797.0, 797.0, 797.0, 797.0, 797.0, 797.0, 798.0, 798.0, 798.0, 797.0, 798.0, 796.0, 798.0, 798.0, 798.0, 798.0, 798.0, 799.0, 797.0, 796.0, 795.0, 797.0, 798.0, 797.0, 797.0, 797.0, 798.0, 797.0, 798.0, 797.0, 797.0, 797.0, 798.0, 798.0, 797.0, 797.0, 798.0, 799.0, 799.0, 799.0, 799.0, 798.0, 798.0, 798.0, 798.0, 798.0, 801.0, 797.0, 798.0, 797.0, 797.0, 797.0, 797.0, 797.0, 798.0, 798.0, 798.0, 799.0, 799.0, 800.0, 798.0, 799.0, 799.0, 800.0, 800.0, 799.0, 799.0, 800.0, 800.0, 800.0, 801.0, 800.0, 801.0, 800.0, 800.0, 799.0, 799.0, 800.0, 799.0, 800.0, 800.0, 799.0, 799.0, 798.0, 799.0, 799.0, 799.0, 799.0, 799.0, 800.0, 799.0, 800.0, 800.0, 800.0, 800.0, 800.0, 800.0, 800.0, 801.0, 801.0, 802.0, 801.0, 802.0, 803.0, 803.0, 802.0, 802.0, 801.0, 802.0, 803.0, 802.0, 803.0, 802.0, 801.0, 802.0, 801.0, 802.0, 802.0, 802.0, 802.0, 802.0, 802.0, 802.0, 802.0, 801.0, 802.0, 802.0, 802.0, 802.0, 802.0, 802.0, 802.0, 802.0, 801.0, 802.0, 802.0, 804.0, 803.0],
      "WindowWidth": [1683.0, 1671.0, 1665.0, 1662.0, 1662.0, 1665.0, 1666.0, 1667.0, 1667.0, 1667.0, 1667.0, 1667.0, 1670.0, 1673.0, 1675.0, 1674.0, 1672.0, 1673.0, 1674.0, 1673.0, 1672.0, 1672.0, 1672.0, 1672.0, 1672.0, 1675.0, 1683.0, 1676.0, 1674.0, 1675.0, 1673.0, 1672.0, 1672.0, 1674.0, 1670.0, 1672.0, 1671.0, 1669.0, 1670.0, 1669.0, 1672.0, 1672.0, 1669.0, 1666.0, 1669.0, 1668.0, 1674.0, 1671.0, 1673.0, 1669.0, 1670.0, 1668.0, 1671.0, 1672.0, 1670.0, 1669.0, 1671.0, 1671.0, 1669.0, 1674.0, 1674.0, 1673.0, 1674.0, 1673.0, 1673.0, 1674.0, 1674.0, 1674.0, 1671.0, 1672.0, 1673.0, 1672.0, 1674.0, 1674.0, 1671.0, 1669.0, 1674.0, 1674.0, 1675.0, 1673.0, 1675.0, 1675.0, 1681.0, 1677.0, 1676.0, 1676.0, 1674.0, 1675.0, 1675.0, 1679.0, 1675.0, 1676.0, 1681.0, 1676.0, 1679.0, 1675.0, 1676.0, 1675.0, 1677.0, 1676.0, 1676.0, 1676.0, 1676.0, 1676.0, 1678.0, 1674.0, 1674.0, 1672.0, 1672.0, 1672.0, 1674.0, 1675.0, 1675.0, 1673.0, 1678.0, 1675.0, 1674.0, 1683.0, 1677.0, 1675.0, 1678.0, 1677.0, 1677.0, 1677.0, 1678.0, 1679.0, 1680.0, 1680.0, 1681.0, 1678.0, 1679.0, 1676.0, 1680.0, 1680.0, 1680.0, 1682.0, 1680.0, 1682.0, 1676.0, 1676.0, 1674.0, 1679.0, 1679.0, 1677.0, 1679.0, 1678.0, 1680.0, 1679.0, 1679.0, 1677.0, 1679.0, 1678.0, 1680.0, 1679.0, 1679.0, 1678.0, 1680.0, 1682.0, 1684.0, 1683.0, 1682.0, 1681.0, 1679.0, 1680.0, 1681.0, 1680.0, 1682.0, 1678.0, 1680.0, 1679.0, 1678.0, 1677.0, 1678.0, 1678.0, 1680.0, 1681.0, 1680.0, 1683.0, 1684.0, 1685.0, 1681.0, 1682.0, 1684.0, 1684.0, 1684.0, 1683.0, 1682.0, 1686.0, 1685.0, 1684.0, 1687.0, 1686.0, 1688.0, 1684.0, 1684.0, 1683.0, 1684.0, 1686.0, 1683.0, 1684.0, 1685.0, 1683.0, 1682.0, 1681.0, 1683.0, 1684.0, 1683.0, 1684.0, 1683.0, 1685.0, 1683.0, 1686.0, 1685.0, 1686.0, 1686.0, 1685.0, 1686.0, 1686.0, 1688.0, 1687.0, 1692.0, 1688.0, 1691.0, 1692.0, 1691.0, 1689.0, 1690.0, 1688.0, 1688.0, 1691.0, 1691.0, 1692.0, 1690.0, 1687.0, 1689.0, 1686.0, 1688.0, 1689.0, 1689.0, 1690.0, 1690.0, 1689.0, 1689.0, 1689.0, 1688.0, 1689.0, 1690.0, 1691.0, 1690.0, 1689.0, 1691.0, 1690.0, 1690.0, 1688.0, 1689.0, 1691.0, 1695.0, 1693.0]
    },
    "slices": {}
  }
}