{
    "AcquisitionMatrixPE": 68, 
    "AcquisitionNumber": 1, 
    "AcquisitionTime": "10:40:39.217500", 
    "BaseResolution": 68, 
    "CoilString": "C:HEA;HEP", 
    "ConversionSoftware": "dcm2niix", 
    "ConversionSoftwareVersion": "v1.0.20190902", 
    "DeviceSerialNumber": "35450", 
    "DwellTime": 2.82e-05, 
    "EchoNumber": 2, 
    "EchoTime": 0.00765, 
    "EchoTime1": 0.00519, 
    "EchoTime2": 0.00765, 
    "FlipAngle": 60, 
    "ImageOrientationPatientDICOM": [
        0.999987, 
        0.000730374, 
        0.00513201, 
        2.94115e-08, 
        0.990023, 
        -0.140903
    ], 
    "ImageType": [
        "ORIGINAL", 
        "PRIMARY", 
        "P", 
        "ND"
    ], 
    "ImagingFrequency": 123.218, 
    "InPlanePhaseEncodingDirectionDICOM": "COL", 
    "InstitutionAddress": "Univeristy_Ave._197_Newark_North_East_US_07102-1814", 
    "InstitutionName": "RUBIC", 
    "InstitutionalDepartmentName": "Department", 
    "IntendedFor": [
        "func/sub-237_task-cardgame_run-01_bold.nii.gz", 
        "func/sub-237_task-cardgame_run-02_bold.nii.gz", 
        "func/sub-237_task-cardgame_run-03_bold.nii.gz", 
        "func/sub-237_task-rest_run-02_bold.nii.gz", 
        "func/sub-237_task-rest_run-03_bold.nii.gz", 
        "func/sub-237_task-rest_run-04_bold.nii.gz", 
        "func/sub-237_task-rest_run-01_bold.nii.gz"
    ], 
    "MRAcquisitionType": "2D", 
    "MagneticFieldStrength": 3, 
    "Manufacturer": "Siemens", 
    "ManufacturersModelName": "TrioTim", 
    "Modality": "MR", 
    "PartialFourier": 1, 
    "PatientPosition": "HFS", 
    "PercentPhaseFOV": 100, 
    "PhaseEncodingDirection": "j-", 
    "PhaseEncodingSteps": 68, 
    "PhaseResolution": 1, 
    "PixelBandwidth": 261, 
    "ProcedureStepDescription": "Krekelberg_David", 
    "ProtocolName": "gre_field_mapping", 
    "PulseSequenceDetails": "%SiemensSeq%_gre_field_mapping", 
    "ReceiveCoilName": "HeadMatrix", 
    "ReconMatrixPE": 68, 
    "RepetitionTime": 0.402, 
    "SAR": 0.264477, 
    "ScanningSequence": "GR", 
    "SequenceName": "_fm2d2r", 
    "SequenceVariant": "SP", 
    "SeriesDescription": "gre_field_mapping", 
    "SeriesNumber": 4, 
    "ShimSetting": [
        1933, 
        -628, 
        -7617, 
        720, 
        27, 
        286, 
        -151, 
        -113
    ], 
    "SliceThickness": 2.5, 
    "SliceTiming": [
        0.20312, 
        0, 
        0.21094, 
        0.00781, 
        0.22656, 
        0.02344, 
        0.23438, 
        0.03125, 
        0.24219, 
        0.04688, 
        0.25781, 
        0.05469, 
        0.26562, 
        0.07031, 
        0.28125, 
        0.07812, 
        0.28906, 
        0.08594, 
        0.30469, 
        0.10156, 
        0.3125, 
        0.10938, 
        0.32812, 
        0.125, 
        0.33594, 
        0.13281, 
        0.34375, 
        0.14062, 
        0.35938, 
        0.15625, 
        0.36719, 
        0.16406, 
        0.38281, 
        0.17969, 
        0.39062, 
        0.1875
    ], 
    "SoftwareVersions": "syngo_MR_B19", 
    "SpacingBetweenSlices": 3, 
    "StationName": "MRC35450", 
    "TxRefAmp": 347.22, 
    "dcmmeta_affine": [
        [
            -2.999959707260132, 
            8.823447927852612e-08, 
            0.015551179647445679, 
            101.74214172363281
        ], 
        [
            -0.002191120758652687, 
            2.9700701236724854, 
            -0.42270374298095703, 
            -72.23541259765625
        ], 
        [
            0.01539603155106306, 
            0.4227093756198883, 
            2.9700279235839844, 
            -52.21107482910156
        ], 
        [
            0.0, 
            0.0, 
            0.0, 
            1.0
        ]
    ], 
    "dcmmeta_reorient_transform": [
        [
            0.0, 
            -1.0, 
            0.0, 
            67.0
        ], 
        [
            1.0, 
            0.0, 
            0.0, 
            0.0
        ], 
        [
            0.0, 
            0.0, 
            -1.0, 
            35.0
        ], 
        [
            0.0, 
            0.0, 
            0.0, 
            1.0
        ]
    ], 
    "dcmmeta_shape": [
        68, 
        68, 
        36
    ], 
    "dcmmeta_slice_dim": 2, 
    "dcmmeta_version": 0.6, 
    "global": {
        "const": {
            "AcquisitionMatrix": [
                68, 
                0, 
                0, 
                68
            ], 
            "AcquisitionNumber": 1, 
            "AngioFlag": "N", 
            "BitsAllocated": 16, 
            "BitsStored": 12, 
            "Columns": 68, 
            "EchoNumbers": 2, 
            "EchoTime": 7.65, 
            "EchoTrainLength": 1, 
            "FlipAngle": 60.0, 
            "HighBit": 11, 
            "ImageOrientationPatient": [
                0.99998656442071, 
                0.0007303735784, 
                0.00513201057084, 
                2.9411492e-08, 
                0.99002338804893, 
                -0.1409031267081
            ], 
            "ImageType": [
                "ORIGINAL", 
                "PRIMARY", 
                "P", 
                "ND"
            ], 
            "ImagedNucleus": "1H", 
            "ImagingFrequency": 123.218416, 
            "InPlanePhaseEncodingDirection": "COL", 
            "MRAcquisitionType": "2D", 
            "MagneticFieldStrength": 3.0, 
            "Manufacturer": "SIEMENS", 
            "ManufacturerModelName": "TrioTim", 
            "Modality": "MR", 
            "NumberOfAverages": 1.0, 
            "NumberOfPhaseEncodingSteps": 68, 
            "PercentPhaseFieldOfView": 100.0, 
            "PercentSampling": 100.0, 
            "PerformedProcedureStepStartTime": "101123.890000", 
            "PhotometricInterpretation": "MONOCHROME2", 
            "PixelBandwidth": 261.0, 
            "PixelRepresentation": 0, 
            "PixelSpacing": [
                3.0, 
                3.0
            ], 
            "ProtocolName": "gre_field_mapping", 
            "RepetitionTime": 402.0, 
            "RescaleIntercept": -4096.0, 
            "RescaleSlope": 2.0, 
            "RescaleType": "US", 
            "Rows": 68, 
            "SAR": 0.26447735000752, 
            "SamplesPerPixel": 1, 
            "ScanningSequence": "GR", 
            "SequenceName": "*fm2d2r", 
            "SequenceVariant": "SP", 
            "SeriesDescription": "gre_field_mapping", 
            "SeriesNumber": 4, 
            "SeriesTime": "104139.781000", 
            "SliceThickness": 2.5, 
            "SoftwareVersions": "syngo MR B19", 
            "SpacingBetweenSlices": 3.0, 
            "SpecificCharacterSet": "ISO_IR 100", 
            "StudyID": "1", 
            "StudyTime": "101123.796000", 
            "TransmitCoilName": "Body", 
            "VariableFlipAngleFlag": "N", 
            "WindowCenterWidthExplanation": "Algo1", 
            "dBdt": 0.0
        }, 
        "slices": {
            "AcquisitionTime": [
                "104039.217500", 
                "104039.015000", 
                "104039.227500", 
                "104039.025000", 
                "104039.240000", 
                "104039.037500", 
                "104039.250000", 
                "104039.047500", 
                "104039.260000", 
                "104039.060000", 
                "104039.272500", 
                "104039.070000", 
                "104039.282500", 
                "104039.082500", 
                "104039.295000", 
                "104039.092500", 
                "104039.305000", 
                "104039.105000", 
                "104039.317500", 
                "104039.115000", 
                "104039.327500", 
                "104039.127500", 
                "104039.340000", 
                "104039.137500", 
                "104039.350000", 
                "104039.150000", 
                "104039.362500", 
                "104039.160000", 
                "104039.372500", 
                "104039.172500", 
                "104039.385000", 
                "104039.182500", 
                "104039.395000", 
                "104039.195000", 
                "104039.407500", 
                "104039.205000"
            ], 
            "ContentTime": [
                "104139.812000", 
                "104139.781000", 
                "104139.812000", 
                "104139.781000", 
                "104139.812000", 
                "104139.781000", 
                "104139.812000", 
                "104139.781000", 
                "104139.812000", 
                "104139.781000", 
                "104139.812000", 
                "104139.781000", 
                "104139.828000", 
                "104139.796000", 
                "104139.828000", 
                "104139.796000", 
                "104139.828000", 
                "104139.796000", 
                "104139.828000", 
                "104139.796000", 
                "104139.828000", 
                "104139.796000", 
                "104139.828000", 
                "104139.796000", 
                "104139.828000", 
                "104139.796000", 
                "104139.828000", 
                "104139.796000", 
                "104139.843000", 
                "104139.796000", 
                "104139.843000", 
                "104139.812000", 
                "104139.843000", 
                "104139.812000", 
                "104139.843000", 
                "104139.812000"
            ], 
            "CsaImage.ICE_Dims": [
                "X_2_1_1_1_1_1_19_1_1_1_1_16", 
                "X_2_1_1_1_1_1_1_1_1_2_1_16", 
                "X_2_1_1_1_1_1_20_1_1_3_1_16", 
                "X_2_1_1_1_1_1_2_1_1_4_1_16", 
                "X_2_1_1_1_1_1_21_1_1_5_1_16", 
                "X_2_1_1_1_1_1_3_1_1_6_1_16", 
                "X_2_1_1_1_1_1_22_1_1_7_1_16", 
                "X_2_1_1_1_1_1_4_1_1_8_1_16", 
                "X_2_1_1_1_1_1_23_1_1_9_1_16", 
                "X_2_1_1_1_1_1_5_1_1_10_1_16", 
                "X_2_1_1_1_1_1_24_1_1_11_1_16", 
                "X_2_1_1_1_1_1_6_1_1_12_1_16", 
                "X_2_1_1_1_1_1_25_1_1_13_1_16", 
                "X_2_1_1_1_1_1_7_1_1_14_1_16", 
                "X_2_1_1_1_1_1_26_1_1_15_1_16", 
                "X_2_1_1_1_1_1_8_1_1_16_1_16", 
                "X_2_1_1_1_1_1_27_1_1_17_1_16", 
                "X_2_1_1_1_1_1_9_1_1_18_1_16", 
                "X_2_1_1_1_1_1_28_1_1_19_1_16", 
                "X_2_1_1_1_1_1_10_1_1_20_1_16", 
                "X_2_1_1_1_1_1_29_1_1_21_1_16", 
                "X_2_1_1_1_1_1_11_1_1_22_1_16", 
                "X_2_1_1_1_1_1_30_1_1_23_1_16", 
                "X_2_1_1_1_1_1_12_1_1_24_1_16", 
                "X_2_1_1_1_1_1_31_1_1_25_1_16", 
                "X_2_1_1_1_1_1_13_1_1_26_1_16", 
                "X_2_1_1_1_1_1_32_1_1_27_1_16", 
                "X_2_1_1_1_1_1_14_1_1_28_1_16", 
                "X_2_1_1_1_1_1_33_1_1_29_1_16", 
                "X_2_1_1_1_1_1_15_1_1_30_1_16", 
                "X_2_1_1_1_1_1_34_1_1_31_1_16", 
                "X_2_1_1_1_1_1_16_1_1_32_1_16", 
                "X_2_1_1_1_1_1_35_1_1_33_1_16", 
                "X_2_1_1_1_1_1_17_1_1_34_1_16", 
                "X_2_1_1_1_1_1_36_1_1_35_1_16", 
                "X_2_1_1_1_1_1_18_1_1_36_1_16"
            ], 
            "CsaImage.ProtocolSliceNumber": [
                0, 
                1, 
                2, 
                3, 
                4, 
                5, 
                6, 
                7, 
                8, 
                9, 
                10, 
                11, 
                12, 
                13, 
                14, 
                15, 
                16, 
                17, 
                18, 
                19, 
                20, 
                21, 
                22, 
                23, 
                24, 
                25, 
                26, 
                27, 
                28, 
                29, 
                30, 
                31, 
                32, 
                33, 
                34, 
                35
            ], 
            "CsaImage.SliceMeasurementDuration": [
                54082.5, 
                54085.0, 
                54085.0, 
                54085.0, 
                54082.5, 
                54085.0, 
                54085.0, 
                54085.0, 
                54085.0, 
                54085.0, 
                54085.0, 
                54085.0, 
                54085.0, 
                54082.5, 
                54085.0, 
                54085.0, 
                54085.0, 
                54082.5, 
                54085.0, 
                54085.0, 
                54085.0, 
                54082.5, 
                54085.0, 
                54085.0, 
                54085.0, 
                54082.5, 
                54085.0, 
                54085.0, 
                54085.0, 
                54082.5, 
                54085.0, 
                54085.0, 
                54085.0, 
                54082.5, 
                54082.5, 
                54085.0
            ], 
            "CsaImage.SlicePosition_PCS": [
                [
                    -101.74214842, 
                    -126.75928389, 
                    -23.8896274
                ], 
                [
                    -101.75769961, 
                    -126.3365792, 
                    -20.91959948
                ], 
                [
                    -101.77325079, 
                    -125.91387641, 
                    -17.94956774
                ], 
                [
                    -101.78880199, 
                    -125.49117171, 
                    -14.97953791
                ], 
                [
                    -101.80435317, 
                    -125.06846892, 
                    -12.00950808
                ], 
                [
                    -101.81990435, 
                    -124.64576422, 
                    -9.03947634
                ], 
                [
                    -101.83545554, 
                    -124.22306144, 
                    -6.06944651
                ], 
                [
                    -101.85100672, 
                    -123.80035865, 
                    -3.09941668
                ], 
                [
                    -101.8665579, 
                    -123.37765395, 
                    -0.1293859
                ], 
                [
                    -101.88210909, 
                    -122.95495116, 
                    2.84064394
                ], 
                [
                    -101.89766028, 
                    -122.53224646, 
                    5.81067472
                ], 
                [
                    -101.91321146, 
                    -122.10954367, 
                    8.78070455
                ], 
                [
                    -101.92876264, 
                    -121.68683898, 
                    11.75073486
                ], 
                [
                    -101.94431383, 
                    -121.26413619, 
                    14.72076523
                ], 
                [
                    -101.95986501, 
                    -120.84143149, 
                    17.69079547
                ], 
                [
                    -101.97541619, 
                    -120.4187287, 
                    20.66082578
                ], 
                [
                    -101.99096738, 
                    -119.99602401, 
                    23.63085561
                ], 
                [
                    -102.00651856, 
                    -119.57332122, 
                    26.6008864
                ], 
                [
                    -102.02206975, 
                    -119.15061652, 
                    29.57091623
                ], 
                [
                    -102.03762093, 
                    -118.72791373, 
                    32.54094701
                ], 
                [
                    -102.05317211, 
                    -118.30520903, 
                    35.51097684
                ], 
                [
                    -102.0687233, 
                    -117.88250624, 
                    38.48100667
                ], 
                [
                    -102.08427448, 
                    -117.45980155, 
                    41.45103841
                ], 
                [
                    -102.09982567, 
                    -117.03709876, 
                    44.42106824
                ], 
                [
                    -102.11537685, 
                    -116.61439502, 
                    47.39109617
                ], 
                [
                    -102.13092803, 
                    -116.19169127, 
                    50.36112791
                ], 
                [
                    -102.14647922, 
                    -115.76898753, 
                    53.33115964
                ], 
                [
                    -102.1620304, 
                    -115.34628379, 
                    56.30118757
                ], 
                [
                    -102.17758158, 
                    -114.92358004, 
                    59.27121931
                ], 
                [
                    -102.19313278, 
                    -114.5008763, 
                    62.24125104
                ], 
                [
                    -102.20868396, 
                    -114.07817256, 
                    65.21127897
                ], 
                [
                    -102.22423514, 
                    -113.65546881, 
                    68.18131071
                ], 
                [
                    -102.23978633, 
                    -113.23276507, 
                    71.15133863
                ], 
                [
                    -102.2553375, 
                    -112.81006133, 
                    74.12137037
                ], 
                [
                    -102.27088871, 
                    -112.38735759, 
                    77.09140211
                ], 
                [
                    -102.28643989, 
                    -111.96465384, 
                    80.06143003
                ]
            ], 
            "CsaImage.TimeAfterStart": [
                0.6075, 
                0.405, 
                0.6175, 
                0.4175, 
                0.63, 
                0.4275, 
                0.64, 
                0.44, 
                0.6525, 
                0.45, 
                0.6625, 
                0.4625, 
                0.675, 
                0.4725, 
                0.685, 
                0.485, 
                0.6975, 
                0.495, 
                0.7075, 
                0.5075, 
                0.72, 
                0.5175, 
                0.73, 
                0.5275, 
                0.7425, 
                0.54, 
                0.7525, 
                0.55, 
                0.765, 
                0.5625, 
                0.775, 
                0.5725, 
                0.7875, 
                0.585, 
                0.7975, 
                0.595
            ], 
            "ImagePositionPatient": [
                [
                    -101.74214842, 
                    -126.75928389351, 
                    -23.889627403996
                ], 
                [
                    -101.75769961455, 
                    -126.33657919685, 
                    -20.919599480412
                ], 
                [
                    -101.77325079419, 
                    -125.91387640755, 
                    -17.949567742131
                ], 
                [
                    -101.78880198874, 
                    -125.49117171089, 
                    -14.979537911198
                ], 
                [
                    -101.80435316839, 
                    -125.06846892158, 
                    -12.009508080266
                ], 
                [
                    -101.81990434804, 
                    -124.64576422493, 
                    -9.0394763419843
                ], 
                [
                    -101.83545554259, 
                    -124.22306143562, 
                    -6.0694465110517
                ], 
                [
                    -101.85100672223, 
                    -123.80035864632, 
                    -3.0994166801191
                ], 
                [
                    -101.86655790188, 
                    -123.37765394966, 
                    -0.1293858955121
                ], 
                [
                    -101.88210908898, 
                    -122.95495116035, 
                    2.8406439354205
                ], 
                [
                    -101.89766027608, 
                    -122.5322464637, 
                    5.8106747200274
                ], 
                [
                    -101.91321145572, 
                    -122.10954367439, 
                    8.78070455096
                ], 
                [
                    -101.92876264282, 
                    -121.68683897774, 
                    11.75073485873
                ], 
                [
                    -101.9443138262, 
                    -121.26413618843, 
                    14.720765226104
                ], 
                [
                    -101.95986500957, 
                    -120.84143149177, 
                    17.690795474269
                ], 
                [
                    -101.9754161948, 
                    -120.41872870247, 
                    20.660825782039
                ], 
                [
                    -101.99096737864, 
                    -119.99602400581, 
                    23.630855612972
                ], 
                [
                    -102.00651856248, 
                    -119.57332121651, 
                    26.600886397579
                ], 
                [
                    -102.02206974678, 
                    -119.15061651985, 
                    29.570916228511
                ], 
                [
                    -102.03762093016, 
                    -118.72791373054, 
                    32.540947013118
                ], 
                [
                    -102.05317211353, 
                    -118.30520903389, 
                    35.510976844051
                ], 
                [
                    -102.0687232969, 
                    -117.88250624458, 
                    38.481006674983
                ], 
                [
                    -102.084274484, 
                    -117.45980154793, 
                    41.451038413265
                ], 
                [
                    -102.0998256711, 
                    -117.03709875862, 
                    44.421068244197
                ], 
                [
                    -102.11537685075, 
                    -116.61439501564, 
                    47.391096167781
                ], 
                [
                    -102.13092803039, 
                    -116.19169127266, 
                    50.361127906063
                ], 
                [
                    -102.14647922494, 
                    -115.76898752968, 
                    53.331159644344
                ], 
                [
                    -102.16203040459, 
                    -115.3462837867, 
                    56.301187567928
                ], 
                [
                    -102.17758158424, 
                    -114.92358004372, 
                    59.271219306209
                ], 
                [
                    -102.19313277879, 
                    -114.50087630073, 
                    62.24125104449
                ], 
                [
                    -102.20868395843, 
                    -114.07817255775, 
                    65.211278968074
                ], 
                [
                    -102.22423513808, 
                    -113.65546881477, 
                    68.181310706356
                ], 
                [
                    -102.23978633263, 
                    -113.23276507179, 
                    71.15133862994
                ], 
                [
                    -102.25533749738, 
                    -112.81006132881, 
                    74.121370368221
                ], 
                [
                    -102.27088870683, 
                    -112.38735758583, 
                    77.091402106502
                ], 
                [
                    -102.28643988647, 
                    -111.96465384285, 
                    80.061430030086
                ]
            ], 
            "InstanceCreationTime": [
                "104139.812000", 
                "104139.781000", 
                "104139.812000", 
                "104139.781000", 
                "104139.812000", 
                "104139.781000", 
                "104139.812000", 
                "104139.781000", 
                "104139.812000", 
                "104139.781000", 
                "104139.812000", 
                "104139.781000", 
                "104139.828000", 
                "104139.796000", 
                "104139.828000", 
                "104139.796000", 
                "104139.828000", 
                "104139.796000", 
                "104139.828000", 
                "104139.796000", 
                "104139.828000", 
                "104139.796000", 
                "104139.828000", 
                "104139.796000", 
                "104139.828000", 
                "104139.796000", 
                "104139.828000", 
                "104139.796000", 
                "104139.843000", 
                "104139.796000", 
                "104139.843000", 
                "104139.812000", 
                "104139.843000", 
                "104139.812000", 
                "104139.843000", 
                "104139.812000"
            ], 
            "InstanceNumber": [
                1, 
                2, 
                3, 
                4, 
                5, 
                6, 
                7, 
                8, 
                9, 
                10, 
                11, 
                12, 
                13, 
                14, 
                15, 
                16, 
                17, 
                18, 
                19, 
                20, 
                21, 
                22, 
                23, 
                24, 
                25, 
                26, 
                27, 
                28, 
                29, 
                30, 
                31, 
                32, 
                33, 
                34, 
                35, 
                36
            ], 
            "LargestImagePixelValue": [
                4089, 
                4090, 
                4091, 
                4085, 
                4093, 
                4090, 
                4093, 
                4092, 
                4071, 
                4086, 
                4063, 
                4094, 
                4092, 
                4086, 
                4090, 
                4094, 
                4091, 
                4093, 
                4089, 
                4085, 
                4077, 
                4091, 
                4086, 
                4088, 
                4085, 
                4094, 
                4093, 
                4094, 
                4094, 
                4085, 
                4090, 
                4093, 
                4093, 
                4093, 
                4094, 
                4094
            ], 
            "SliceLocation": [
                -40.984108526347, 
                -37.984110698499, 
                -34.984109362887, 
                -31.984109646745, 
                -28.984110199428, 
                -25.984108595068, 
                -22.984109147673, 
                -19.984109700356, 
                -16.984109040143, 
                -13.984109592787, 
                -10.984108932536, 
                -7.9841094852189, 
                -4.9841092970414, 
                -1.9841093186219, 
                1.015890810527, 
                4.0158907299471, 
                7.015890446034, 
                10.01589083752, 
                13.01589055361, 
                16.015890945094, 
                19.015890661178, 
                22.015890108515, 
                25.015891712913, 
                28.015891160269, 
                31.015888853666, 
                34.015890323652, 
                37.015891793715, 
                40.015889487112, 
                43.015890957098, 
                46.01589242716, 
                49.015890120557, 
                52.015891590543, 
                55.015889284017, 
                58.015890753926, 
                61.015892224066, 
                64.015889917463
            ], 
            "SmallestImagePixelValue": [
                1, 
                1, 
                3, 
                2, 
                1, 
                1, 
                2, 
                1, 
                8, 
                1, 
                3, 
                3, 
                34, 
                0, 
                5, 
                6, 
                2, 
                4, 
                11, 
                1, 
                6, 
                2, 
                4, 
                6, 
                5, 
                1, 
                2, 
                0, 
                0, 
                3, 
                2, 
                2, 
                3, 
                4, 
                0, 
                0
            ], 
            "WindowCenter": [
                -256.0, 
                -250.0, 
                -246.0, 
                -286.0, 
                -262.0, 
                -218.0, 
                -154.0, 
                -146.0, 
                -162.0, 
                -196.0, 
