{
  "aor": 0.0035529182879377444,
  "aqi": 0.01192719354085603,
  "bids_meta": {
    "AcquisitionMatrixPE": 68,
    "AcquisitionNumber": 1,
    "AcquisitionTime": "15:43:23.820000",
    "BandwidthPerPixelPhaseEncode": 31.289,
    "BaseResolution": 68,
    "CogAtlasID": "TODO",
    "CoilString": "C:HEA;HEP",
    "ConversionSoftware": "dcm2niix",
    "ConversionSoftwareVersion": "v1.0.20190902",
    "DerivedVendorReportedEchoSpacing": 0.000470002,
    "DeviceSerialNumber": "35450",
    "DwellTime": 3e-06,
    "EchoTime": 0.023,
    "EffectiveEchoSpacing": 0.000470002,
    "FlipAngle": 76,
    "ImageOrientationPatientDICOM": [
      0.999945,
      0.00176443,
      0.0103221,
      -4.64101e-08,
      0.985703,
      -0.168489
    ],
    "ImageType": [
      "ORIGINAL",
      "PRIMARY",
      "M",
      "ND",
      "MOSAIC"
    ],
    "ImagingFrequency": 123.219,
    "InPlanePhaseEncodingDirectionDICOM": "COL",
    "InstitutionAddress": "Univeristy_Ave._197_Newark_North_East_US_07102-1814",
    "InstitutionName": "RUBIC",
    "InstitutionalDepartmentName": "Department",
    "MRAcquisitionType": "2D",
    "MagneticFieldStrength": 3,
    "Manufacturer": "Siemens",
    "ManufacturersModelName": "TrioTim",
    "Modality": "MR",
    "PartialFourier": 1,
    "PatientPosition": "HFS",
    "PercentPhaseFOV": 100,
    "PhaseEncodingDirection": "j-",
    "PhaseEncodingSteps": 68,
    "PhaseResolution": 1,
    "PixelBandwidth": 2451,
    "ProcedureStepDescription": "Krekelberg_David",
    "ProtocolName": "ep2d_bold_CardGameEPI_2",
    "PulseSequenceDetails": "%SiemensSeq%_ep2d_bold",
    "ReceiveCoilName": "HeadMatrix",
    "ReconMatrixPE": 68,
    "RepetitionTime": 2,
    "SAR": 0.159503,
    "ScanOptions": "FS",
    "ScanningSequence": "EP",
    "SequenceName": "_epfid2d1_68",
    "SequenceVariant": "SK",
    "SeriesDescription": "ep2d_bold_CardGameEPI_2",
    "SeriesNumber": 8,
    "ShimSetting": [
      1915,
      -673,
      -7628,
      549,
      20,
      -268,
      -247,
      6
    ],
    "SliceThickness": 2.5,
    "SliceTiming": [
      1.95,
      1.895,
      1.84,
      1.785,
      1.7275,
      1.6725,
      1.6175,
      1.56,
      1.505,
      1.45,
      1.3925,
      1.3375,
      1.2825,
      1.225,
      1.17,
      1.115,
      1.06,
      1.0025,
      0.9475,
      0.8925,
      0.835,
      0.78,
      0.725,
      0.6675,
      0.6125,
      0.5575,
      0.5025,
      0.445,
      0.39,
      0.335,
      0.2775,
      0.2225,
      0.1675,
      0.11,
      0.055,
      0
    ],
    "SoftwareVersions": "syngo_MR_B19",
    "SpacingBetweenSlices": 3,
    "StationName": "MRC35450",
    "TaskName": "cardgame",
    "TotalReadoutTime": 0.0314901,
    "TxRefAmp": 328.022,
    "dataset": "<unset>",
    "dcmmeta_affine": [
      [
        -2.99983549118042,
        -1.3923023800543888e-07,
        0.031415365636348724,
        101.44464111328125
      ],
      [
        -0.005293292459100485,
        2.9571104049682617,
        -0.5054404139518738,
        -72.96623992919922
      ],
      [
        0.03096620924770832,
        0.5054681301116943,
        2.9569482803344727,
        -34.903621673583984
      ],
      [
        0.0,
        0.0,
        0.0,
        1.0
      ]
    ],
    "dcmmeta_reorient_transform": [
      [
        0.0,
        -1.0,
        0.0,
        67.0
      ],
      [
        1.0,
        0.0,
        0.0,
        0.0
      ],
      [
        0.0,
        0.0,
        1.0,
        0.0
      ],
      [
        0.0,
        0.0,
        0.0,
        1.0
      ]
    ],
    "dcmmeta_shape": [
      68,
      68,
      36,
      258
    ],
    "dcmmeta_slice_dim": 2,
    "dcmmeta_version": 0.6,
    "global": {
      "const": {
        "AcquisitionMatrix": [
          68,
          0,
          0,
          68
        ],
        "AngioFlag": "N",
        "BitsAllocated": 16,
        "BitsStored": 12,
        "Columns": 408,
        "EchoNumbers": 1,
        "EchoTime": 23.0,
        "EchoTrainLength": 1,
        "FlipAngle": 76.0,
        "HighBit": 11,
        "ImageOrientationPatient": [
          0.99994516932492,
          0.00176443083918,
          0.0103220699264,
          -4.6410077e-08,
          0.98570346854357,
          -0.168489382755
        ],
        "ImagePositionPatient": [
          -611.41664653759,
          -628.76878330103,
          79.62807303292
        ],
        "ImageType": [
          "ORIGINAL",
          "PRIMARY",
          "M",
          "ND",
          "MOSAIC"
        ],
        "ImagedNucleus": "1H",
        "ImagingFrequency": 123.218544,
        "InPlanePhaseEncodingDirection": "COL",
        "MRAcquisitionType": "2D",
        "MagneticFieldStrength": 3.0,
        "Manufacturer": "SIEMENS",
        "ManufacturerModelName": "TrioTim",
        "Modality": "MR",
        "NumberOfAverages": 1.0,
        "NumberOfPhaseEncodingSteps": 68,
        "PercentPhaseFieldOfView": 100.0,
        "PercentSampling": 100.0,
        "PerformedProcedureStepStartTime": "150624.671000",
        "PhotometricInterpretation": "MONOCHROME2",
        "PixelBandwidth": 2451.0,
        "PixelRepresentation": 0,
        "PixelSpacing": [
          3.0,
          3.0
        ],
        "ProtocolName": "ep2d_bold_CardGameEPI_2",
        "RepetitionTime": 2000.0,
        "Rows": 408,
        "SAR": 0.15950270153561,
        "SamplesPerPixel": 1,
        "ScanOptions": "FS",
        "ScanningSequence": "EP",
        "SequenceName": "*epfid2d1_68",
        "SequenceVariant": "SK",
        "SeriesDescription": "ep2d_bold_CardGameEPI_2",
        "SeriesNumber": 8,
        "SeriesTime": "154327.125000",
        "SliceLocation": -21.047065439354,
        "SliceThickness": 2.5,
        "SmallestImagePixelValue": 0,
        "SoftwareVersions": "syngo MR B19",
        "SpacingBetweenSlices": 3.0000000426714,
        "SpecificCharacterSet": "ISO_IR 100",
        "StudyID": "1",
        "StudyTime": "150624.625000",
        "TransmitCoilName": "Body",
        "VariableFlipAngleFlag": "N",
        "WindowCenterWidthExplanation": "Algo1",
        "dBdt": 0.0
      },
      "slices": {}
    },
    "modality": "bold",
    "run_id": 2,
    "subject_id": "216",
    "task_id": "cardgame",
    "time": {
      "samples": {
        "AcquisitionNumber": [
          1,
          2,
          3,
          4,
          5,
          6,
          7,
          8,
          9,
          10,
          11,
          12,
          13,
          14,
          15,
          16,
          17,
          18,
          19,
          20,
          21,
          22,
          23,
          24,
          25,
          26,
          27,
          28,
          29,
          30,
          31,
          32,
          33,
          34,
          35,
          36,
          37,
          38,
          39,
          40,
          41,
          42,
          43,
          44,
          45,
          46,
          47,
          48,
          49,
          50,
          51,
          52,
          53,
          54,
          55,
          56,
          57,
          58,
          59,
          60,
          61,
          62,
          63,
          64,
          65,
          66,
          67,
          68,
          69,
          70,
          71,
          72,
          73,
          74,
          75,
          76,
          77,
          78,
          79,
          80,
          81,
          82,
          83,
          84,
          85,
          86,
          87,
          88,
          89,
          90,
          91,
          92,
          93,
          94,
          95,
          96,
          97,
          98,
          99,
          100,
          101,
          102,
          103,
          104,
          105,
          106,
          107,
          108,
          109,
          110,
          111,
          112,
          113,
          114,
          115,
          116,
          117,
          118,
          119,
          120,
          121,
          122,
          123,
          124,
          125,
          126,
          127,
          128,
          129,
          130,
          131,
          132,
          133,
          134,
          135,
          136,
          137,
          138,
          139,
          140,
          141,
          142,
          143,
          144,
          145,
          146,
          147,
          148,
          149,
          150,
          151,
          152,
          153,
          154,
          155,
          156,
          157,
          158,
          159,
          160,
          161,
          162,
          163,
          164,
          165,
          166,
          167,
          168,
          169,
          170,
          171,
          172,
          173,
          174,
          175,
          176,
          177,
          178,
          179,
          180,
          181,
          182,
          183,
          184,
          185,
          186,
          187,
          188,
          189,
          190,
          191,
          192,
          193,
          194,
          195,
          196,
          197,
          198,
          199,
          200,
          201,
          202,
          203,
          204,
          205,
          206,
          207,
          208,
          209,
          210,
          211,
          212,
          213,
          214,
          215,
          216,
          217,
          218,
          219,
          220,
          221,
          222,
          223,
          224,
          225,
          226,
          227,
          228,
          229,
          230,
          231,
          232,
          233,
          234,
          235,
          236,
          237,
          238,
          239,
          240,
          241,
          242,
          243,
          244,
          245,
          246,
          247,
          248,
          249,
          250,
          251,
          252,
          253,
          254,
          255,
          256,
          257,
          258
        ],
        "AcquisitionTime": [
          "154323.820000",
          "154325.830000",
          "154327.837500",
          "154329.845000",
          "154331.852500",
          "154333.862500",
          "154335.870000",
          "154337.877500",
          "154339.885000",
          "154341.892500",
          "154343.902500",
          "154345.910000",
          "154347.917500",
          "154349.925000",
          "154351.932500",
          "154353.942500",
          "154355.950000",
          "154357.957500",
          "154359.965000",
          "154401.972500",
          "154403.982500",
          "154405.990000",
          "154407.997500",
          "154410.005000",
          "154412.015000",
          "154414.022500",
          "154416.030000",
          "154418.037500",
          "154420.045000",
          "154422.055000",
          "154424.062500",
          "154426.070000",
          "154428.077500",
          "154430.085000",
          "154432.095000",
          "154434.102500",
          "154436.110000",
          "154438.117500",
          "154440.127500",
          "154442.135000",
          "154444.142500",
          "154446.150000",
          "154448.157500",
          "154450.167500",
          "154452.175000",
          "154454.182500",
          "154456.190000",
          "154458.197500",
          "154500.207500",
          "154502.215000",
          "154504.222500",
          "154506.230000",
          "154508.240000",
          "154510.247500",
          "154512.255000",
          "154514.262500",
          "154516.270000",
          "154518.280000",
          "154520.287500",
          "154522.295000",
          "154524.302500",
          "154526.310000",
          "154528.320000",
          "154530.327500",
          "154532.335000",
          "154534.342500",
          "154536.350000",
          "154538.360000",
          "154540.367500",
          "154542.375000",
          "154544.382500",
          "154546.392500",
          "154548.400000",
          "154550.407500",
          "154552.415000",
          "154554.422500",
          "154556.432500",
          "154558.440000",
          "154600.447500",
          "154602.455000",
          "154604.462500",
          "154606.472500",
          "154608.480000",
          "154610.487500",
          "154612.495000",
          "154614.505000",
          "154616.512500",
          "154618.520000",
          "154620.527500",
          "154622.535000",
          "154624.545000",
          "154626.552500",
          "154628.560000",
          "154630.567500",
          "154632.575000",
          "154634.585000",
          "154636.592500",
          "154638.600000",
          "154640.607500",
          "154642.617500",
          "154644.625000",
          "154646.632500",
          "154648.640000",
          "154650.647500",
          "154652.657500",
          "154654.665000",
          "154656.672500",
          "154658.680000",
          "154700.687500",
          "154702.697500",
          "154704.705000",
          "154706.712500",
          "154708.720000",
          "154710.727500",
          "154712.737500",
          "154714.745000",
          "154716.752500",
          "154718.760000",
          "154720.770000",
          "154722.777500",
          "154724.785000",
          "154726.792500",
          "154728.800000",
          "154730.810000",
          "154732.817500",
          "154734.825000",
          "154736.832500",
          "154738.840000",
          "154740.850000",
          "154742.857500",
          "154744.865000",
          "154746.872500",
          "154748.882500",
          "154750.890000",
          "154752.897500",
          "154754.905000",
          "154756.912500",
          "154758.922500",
          "154800.930000",
          "154802.937500",
          "154804.945000",
          "154806.952500",
          "154808.962500",
          "154810.970000",
          "154812.977500",
          "154814.985000",
          "154816.995000",
          "154819.002500",
          "154821.010000",
          "154823.017500",
          "154825.025000",
          "154827.035000",
          "154829.042500",
          "154831.050000",
          "154833.057500",
          "154835.065000",
          "154837.075000",
          "154839.082500",
          "154841.090000",
          "154843.097500",
          "154845.105000",
          "154847.115000",
          "154849.122500",
          "154851.130000",
          "154853.137500",
          "154855.147500",
          "154857.155000",
          "154859.162500",
          "154901.170000",
          "154903.177500",
          "154905.187500",
          "154907.195000",
          "154909.202500",
          "154911.210000",
          "154913.217500",
          "154915.227500",
          "154917.235000",
          "154919.242500",
          "154921.250000",
          "154923.260000",
          "154925.267500",
          "154927.275000",
          "154929.282500",
          "154931.290000",
          "154933.300000",
          "154935.307500",
          "154937.315000",
          "154939.322500",
          "154941.330000",
          "154943.340000",
          "154945.347500",
          "154947.355000",
          "154949.362500",
          "154951.372500",
          "154953.380000",
          "154955.387500",
          "154957.395000",
          "154959.402500",
          "155001.412500",
          "155003.420000",
          "155005.427500",
          "155007.435000",
          "155009.442500",
          "155011.452500",
          "155013.460000",
          "155015.467500",
          "155017.475000",
          "155019.482500",
          "155021.492500",
          "155023.500000",
          "155025.507500",
          "155027.515000",
          "155029.525000",
          "155031.532500",
          "155033.540000",
          "155035.547500",
          "155037.555000",
          "155039.565000",
          "155041.572500",
          "155043.580000",
          "155045.587500",
          "155047.595000",
          "155049.605000",
          "155051.612500",
          "155053.620000",
          "155055.627500",
          "155057.637500",
          "155059.645000",
          "155101.652500",
          "155103.660000",
          "155105.667500",
          "155107.677500",
          "155109.685000",
          "155111.692500",
          "155113.700000",
          "155115.707500",
          "155117.717500",
          "155119.725000",
          "155121.732500",
          "155123.740000",
          "155125.750000",
          "155127.757500",
          "155129.765000",
          "155131.772500",
          "155133.780000",
          "155135.790000",
          "155137.797500",
          "155139.805000",
          "155141.812500",
          "155143.820000",
          "155145.830000",
          "155147.837500",
          "155149.845000",
          "155151.852500",
          "155153.862500",
          "155155.870000",
          "155157.877500",
          "155159.885000"
        ],
        "ContentTime": [
          "154327.125000",
          "154327.125000",
          "154407.109000",
          "154407.125000",
          "154407.125000",
          "154407.125000",
          "154407.125000",
          "154407.125000",
          "154407.125000",
          "154407.125000",
          "154407.140000",
          "154407.140000",
          "154407.140000",
          "154407.140000",
          "154407.140000",
          "154407.140000",
          "154407.140000",
          "154407.140000",
          "154407.156000",
          "154407.156000",
          "154407.156000",
          "154407.156000",
          "154447.109000",
          "154447.125000",
          "154447.125000",
          "154447.125000",
          "154447.125000",
          "154447.125000",
          "154447.125000",
          "154447.125000",
          "154447.125000",
          "154447.140000",
          "154447.140000",
          "154447.140000",
          "154447.140000",
          "154447.140000",
          "154447.140000",
          "154447.140000",
          "154447.156000",
          "154447.156000",
          "154447.156000",
          "154447.156000",
          "154527.109000",
          "154527.125000",
          "154527.125000",
          "154527.125000",
          "154527.125000",
          "154527.125000",
          "154527.125000",
          "154527.125000",
          "154527.140000",
          "154527.140000",
          "154527.140000",
          "154527.140000",
          "154527.140000",
          "154527.140000",
          "154527.140000",
          "154527.156000",
          "154527.156000",
          "154527.156000",
          "154527.156000",
          "154527.156000",
          "154607.109000",
          "154607.125000",
          "154607.125000",
          "154607.125000",
          "154607.125000",
          "154607.125000",
          "154607.125000",
          "154607.125000",
          "154607.125000",
          "154607.140000",
          "154607.140000",
          "154607.140000",
          "154607.140000",
          "154607.140000",
          "154607.140000",
          "154607.140000",
          "154607.156000",
          "154607.156000",
          "154607.156000",
          "154607.156000",
          "154647.109000",
          "154647.125000",
          "154647.125000",
          "154647.125000",
          "154647.125000",
          "154647.125000",
          "154647.125000",
          "154647.125000",
          "154647.125000",
          "154647.140000",
          "154647.140000",
          "154647.140000",
          "154647.140000",
          "154647.140000",
          "154647.140000",
          "154647.140000",
          "154647.156000",
          "154647.156000",
          "154647.156000",
          "154647.156000",
          "154727.109000",
          "154727.125000",
          "154727.125000",
          "154727.125000",
          "154727.125000",
          "154727.125000",
          "154727.125000",
          "154727.140000",
          "154727.140000",
          "154727.140000",
          "154727.140000",
          "154727.140000",
          "154727.140000",
          "154727.140000",
          "154727.140000",
          "154727.156000",
          "154727.156000",
          "154727.156000",
          "154727.156000",
          "154727.156000",
          "154807.109000",
          "154807.125000",
          "154807.125000",
          "154807.125000",
          "154807.125000",
          "154807.125000",
          "154807.125000",
          "154807.125000",
          "154807.140000",
          "154807.140000",
          "154807.140000",
          "154807.140000",
          "154807.140000",
          "154807.140000",
          "154807.140000",
          "154807.140000",
          "154807.156000",
          "154807.156000",
          "154807.156000",
          "154807.156000",
          "154847.109000",
          "154847.125000",
          "154847.125000",
          "154847.125000",
          "154847.125000",
          "154847.125000",
          "154847.125000",
          "154847.125000",
          "154847.140000",
          "154847.140000",
          "154847.140000",
          "154847.140000",
          "154847.140000",
          "154847.140000",
          "154847.140000",
          "154847.156000",
          "154847.156000",
          "154847.156000",
          "154847.156000",
          "154847.156000",
          "154927.109000",
          "154927.125000",
          "154927.125000",
          "154927.125000",
          "154927.125000",
          "154927.125000",
          "154927.125000",
          "154927.125000",
          "154927.140000",
          "154927.140000",
          "154927.140000",
          "154927.140000",
          "154927.140000",
          "154927.140000",
          "154927.140000",
          "154927.140000",
          "154927.156000",
          "154927.156000",
          "154927.156000",
          "154927.156000",
          "155007.109000",
          "155007.125000",
          "155007.125000",
          "155007.125000",
          "155007.125000",
          "155007.125000",
          "155007.125000",
          "155007.125000",
          "155007.140000",
          "155007.140000",
          "155007.140000",
          "155007.140000",
          "155007.140000",
          "155007.140000",
          "155007.140000",
          "155007.140000",
          "155007.156000",
          "155007.156000",
          "155007.156000",
          "155007.156000",
          "155047.109000",
          "155047.125000",
          "155047.125000",
          "155047.125000",
          "155047.125000",
          "155047.125000",
          "155047.125000",
          "155047.125000",
          "155047.125000",
          "155047.140000",
          "155047.140000",
          "155047.140000",
          "155047.140000",
          "155047.140000",
          "155047.140000",
          "155047.140000",
          "155047.156000",
          "155047.156000",
          "155047.156000",
          "155047.156000",
          "155127.109000",
          "155127.125000",
          "155127.125000",
          "155127.125000",
          "155127.125000",
          "155127.125000",
          "155127.125000",
          "155127.125000",
          "155127.140000",
          "155127.140000",
          "155127.140000",
          "155127.140000",
          "155127.140000",
          "155127.140000",
          "155127.140000",
          "155127.140000",
          "155127.156000",
          "155127.156000",
          "155127.156000",
          "155127.156000",
          "155157.875000",
          "155157.875000",
          "155157.875000",
          "155157.875000",
          "155157.875000",
          "155157.890000",
          "155157.890000",
          "155157.890000",
          "155157.890000",
          "155157.890000",
          "155157.890000",
          "155157.890000",
          "155157.906000",
          "155157.906000",
          "155157.906000",
          "155157.906000"
        ],
        "InstanceCreationTime": [
          "154327.125000",
          "154327.125000",
          "154407.109000",
          "154407.125000",
          "154407.125000",
          "154407.125000",
          "154407.125000",
          "154407.125000",
          "154407.125000",
          "154407.125000",
          "154407.140000",
          "154407.140000",
          "154407.140000",
          "154407.140000",
          "154407.140000",
          "154407.140000",
          "154407.140000",
          "154407.140000",
          "154407.156000",
          "154407.156000",
          "154407.156000",
          "154407.156000",
          "154447.109000",
          "154447.125000",
          "154447.125000",
          "154447.125000",
          "154447.125000",
          "154447.125000",
          "154447.125000",
          "154447.125000",
          "154447.125000",
          "154447.140000",
          "154447.140000",
          "154447.140000",
          "154447.140000",
          "154447.140000",
          "154447.140000",
          "154447.140000",
          "154447.156000",
          "154447.156000",
          "154447.156000",
          "154447.156000",
          "154527.109000",
          "154527.125000",
          "154527.125000",
          "154527.125000",
          "154527.125000",
          "154527.125000",
          "154527.125000",
          "154527.125000",
          "154527.140000",
          "154527.140000",
          "154527.140000",
          "154527.140000",
          "154527.140000",
          "154527.140000",
          "154527.140000",
          "154527.156000",
          "154527.156000",
          "154527.156000",
          "154527.156000",
          "154527.156000",
          "154607.109000",
          "154607.125000",
          "154607.125000",
          "154607.125000",
          "154607.125000",
          "154607.125000",
          "154607.125000",
          "154607.125000",
          "154607.125000",
          "154607.140000",
          "154607.140000",
          "154607.140000",
          "154607.140000",
          "154607.140000",
          "154607.140000",
          "154607.140000",
          "154607.156000",
          "154607.156000",
          "154607.156000",
          "154607.156000",
          "154647.109000",
          "154647.125000",
          "154647.125000",
          "154647.125000",
          "154647.125000",
          "154647.125000",
          "154647.125000",
          "154647.125000",
          "154647.125000",
          "154647.140000",
          "154647.140000",
          "154647.140000",
          "154647.140000",
          "154647.140000",
          "154647.140000",
          "154647.140000",
          "154647.156000",
          "154647.156000",
          "154647.156000",
          "154647.156000",
          "154727.109000",
          "154727.125000",
          "154727.125000",
          "154727.125000",
          "154727.125000",
          "154727.125000",
          "154727.125000",
          "154727.140000",
          "154727.140000",
          "154727.140000",
          "154727.140000",
          "154727.140000",
          "154727.140000",
          "154727.140000",
          "154727.140000",
          "154727.156000",
          "154727.156000",
          "154727.156000",
          "154727.156000",
          "154727.156000",
          "154807.109000",
          "154807.125000",
          "154807.125000",
          "154807.125000",
          "154807.125000",
          "154807.125000",
          "154807.125000",
          "154807.125000",
          "154807.140000",
          "154807.140000",
          "154807.140000",
          "154807.140000",
          "154807.140000",
          "154807.140000",
          "154807.140000",
          "154807.140000",
          "154807.156000",
          "154807.156000",
          "154807.156000",
          "154807.156000",
          "154847.109000",
          "154847.125000",
          "154847.125000",
          "154847.125000",
          "154847.125000",
          "154847.125000",
          "154847.125000",
          "154847.125000",
          "154847.140000",
          "154847.140000",
          "154847.140000",
          "154847.140000",
          "154847.140000",
          "154847.140000",
          "154847.140000",
          "154847.156000",
          "154847.156000",
          "154847.156000",
          "154847.156000",
          "154847.156000",
          "154927.109000",
          "154927.125000",
          "154927.125000",
          "154927.125000",
          "154927.125000",
          "154927.125000",
          "154927.125000",
          "154927.125000",
          "154927.140000",
          "154927.140000",
          "154927.140000",
          "154927.140000",
          "154927.140000",
          "154927.140000",
          "154927.140000",
          "154927.140000",
          "154927.156000",
          "154927.156000",
          "154927.156000",
          "154927.156000",
          "155007.109000",
          "155007.125000",
          "155007.125000",
          "155007.125000",
          "155007.125000",
          "155007.125000",
          "155007.125000",
          "155007.125000",
          "155007.140000",
          "155007.140000",
          "155007.140000",
          "155007.140000",
          "155007.140000",
          "155007.140000",
          "155007.140000",
          "155007.140000",
          "155007.156000",
          "155007.156000",
          "155007.156000",
          "155007.156000",
          "155047.109000",
          "155047.125000",
          "155047.125000",
          "155047.125000",
          "155047.125000",
          "155047.125000",
          "155047.125000",
          "155047.125000",
          "155047.125000",
          "155047.140000",
          "155047.140000",
          "155047.140000",
          "155047.140000",
          "155047.140000",
          "155047.140000",
          "155047.140000",
