{
  "aor": 0.0004877916666666667,
  "aqi": 0.0076185095,
  "bids_meta": {
    "AcquisitionMatrixPE": 68,
    "AcquisitionNumber": 1,
    "AcquisitionTime": "10:08:8.710000",
    "BandwidthPerPixelPhaseEncode": 31.289,
    "BaseResolution": 68,
    "CogAtlasID": "TODO",
    "CoilString": "C:HEA;HEP",
    "ConversionSoftware": "dcm2niix",
    "ConversionSoftwareVersion": "v1.0.20190902",
    "DerivedVendorReportedEchoSpacing": 0.000470002,
    "DeviceSerialNumber": "35450",
    "DwellTime": 3e-06,
    "EchoTime": 0.023,
    "EffectiveEchoSpacing": 0.000470002,
    "FlipAngle": 76,
    "ImageOrientationPatientDICOM": [
      0.999962,
      0.0020224,
      0.00848896,
      -4.18132e-08,
      0.972776,
      -0.231748
    ],
    "ImageType": [
      "ORIGINAL",
      "PRIMARY",
      "M",
      "ND",
      "MOSAIC"
    ],
    "ImagingFrequency": 123.219,
    "InPlanePhaseEncodingDirectionDICOM": "COL",
    "InstitutionAddress": "Univeristy_Ave._197_Newark_North_East_US_07102-1814",
    "InstitutionName": "RUBIC",
    "InstitutionalDepartmentName": "Department",
    "MRAcquisitionType": "2D",
    "MagneticFieldStrength": 3,
    "Manufacturer": "Siemens",
    "ManufacturersModelName": "TrioTim",
    "Modality": "MR",
    "PartialFourier": 1,
    "PatientPosition": "HFS",
    "PercentPhaseFOV": 100,
    "PhaseEncodingDirection": "j-",
    "PhaseEncodingSteps": 68,
    "PhaseResolution": 1,
    "PixelBandwidth": 2451,
    "ProcedureStepDescription": "Krekelberg_David",
    "ProtocolName": "ep2d_bold_RestEPI",
    "PulseSequenceDetails": "%SiemensSeq%_ep2d_bold",
    "ReceiveCoilName": "HeadMatrix",
    "ReconMatrixPE": 68,
    "RepetitionTime": 2,
    "SAR": 0.191358,
    "ScanOptions": "FS",
    "ScanningSequence": "EP",
    "SequenceName": "_epfid2d1_68",
    "SequenceVariant": "SK",
    "SeriesDescription": "ep2d_bold_RestEPI",
    "SeriesNumber": 11,
    "ShimSetting": [
      1986,
      -527,
      -7580,
      697,
      15,
      76,
      -374,
      -71
    ],
    "SliceThickness": 2.5,
    "SliceTiming": [
      1.95,
      1.895,
      1.84,
      1.7825,
      1.7275,
      1.6725,
      1.615,
      1.56,
      1.505,
      1.45,
      1.3925,
      1.3375,
      1.2825,
      1.225,
      1.17,
      1.115,
      1.0575,
      1.0025,
      0.9475,
      0.89,
      0.835,
      0.78,
      0.725,
      0.6675,
      0.6125,
      0.5575,
      0.5,
      0.445,
      0.39,
      0.3325,
      0.2775,
      0.2225,
      0.165,
      0.11,
      0.055,
      0
    ],
    "SoftwareVersions": "syngo_MR_B19",
    "SpacingBetweenSlices": 3,
    "StationName": "MRC35450",
    "TaskName": "rest",
    "TotalReadoutTime": 0.0314901,
    "TxRefAmp": 435.438,
    "dataset": "<unset>",
    "dcmmeta_affine": [
      [
        -2.9998857975006104,
        -1.2543948457732768e-07,
        0.026179632171988487,
        105.60577392578125
      ],
      [
        -0.00606719683855772,
        2.918327569961548,
        -0.6952172517776489,
        -72.39857482910156
      ],
      [
        0.025466885417699814,
        0.6952437162399292,
        2.9182164669036865,
        -58.605552673339844
      ],
      [
        0.0,
        0.0,
        0.0,
        1.0
      ]
    ],
    "dcmmeta_reorient_transform": [
      [
        0.0,
        -1.0,
        0.0,
        67.0
      ],
      [
        1.0,
        0.0,
        0.0,
        0.0
      ],
      [
        0.0,
        0.0,
        1.0,
        0.0
      ],
      [
        0.0,
        0.0,
        0.0,
        1.0
      ]
    ],
    "dcmmeta_shape": [
      68,
      68,
      36,
      240
    ],
    "dcmmeta_slice_dim": 2,
    "dcmmeta_version": 0.6,
    "global": {
      "const": {
        "AcquisitionMatrix": [
          68,
          0,
          0,
          68
        ],
        "AngioFlag": "N",
        "BitsAllocated": 16,
        "BitsStored": 12,
        "Columns": 408,
        "EchoNumbers": 1,
        "EchoTime": 23.0,
        "EchoTrainLength": 1,
        "FlipAngle": 76.0,
        "HighBit": 11,
        "ImageOrientationPatient": [
          0.99996192298765,
          0.00202239900684,
          0.00848896207399,
          -4.1813161e-08,
          0.97277587834468,
          -0.2317479029263
        ],
        "ImagePositionPatient": [
          -615.58632499011,
          -620.27649881835,
          101.83783712754
        ],
        "ImageType": [
          "ORIGINAL",
          "PRIMARY",
          "M",
          "ND",
          "MOSAIC"
        ],
        "ImagedNucleus": "1H",
        "ImagingFrequency": 123.218614,
        "InPlanePhaseEncodingDirection": "COL",
        "MRAcquisitionType": "2D",
        "MagneticFieldStrength": 3.0,
        "Manufacturer": "SIEMENS",
        "ManufacturerModelName": "TrioTim",
        "Modality": "MR",
        "NumberOfAverages": 1.0,
        "NumberOfPhaseEncodingSteps": 68,
        "PercentPhaseFieldOfView": 100.0,
        "PercentSampling": 100.0,
        "PerformedProcedureStepStartTime": "085933.765000",
        "PhotometricInterpretation": "MONOCHROME2",
        "PixelBandwidth": 2451.0,
        "PixelRepresentation": 0,
        "PixelSpacing": [
          3.0,
          3.0
        ],
        "ProtocolName": "ep2d_bold_RestEPI",
        "RepetitionTime": 2000.0,
        "Rows": 408,
        "SAR": 0.19135827292071,
        "SamplesPerPixel": 1,
        "ScanOptions": "FS",
        "ScanningSequence": "EP",
        "SequenceName": "*epfid2d1_68",
        "SequenceVariant": "SK",
        "SeriesDescription": "ep2d_bold_RestEPI",
        "SeriesNumber": 11,
        "SeriesTime": "100904.015000",
        "SliceLocation": -39.308743459734,
        "SliceThickness": 2.5,
        "SmallestImagePixelValue": 0,
        "SoftwareVersions": "syngo MR B19",
        "SpacingBetweenSlices": 2.999999978053,
        "SpecificCharacterSet": "ISO_IR 100",
        "StudyID": "1",
        "StudyTime": "085933.437000",
        "TransmitCoilName": "Body",
        "VariableFlipAngleFlag": "N",
        "WindowCenterWidthExplanation": "Algo1",
        "dBdt": 0.0
      },
      "slices": {}
    },
    "modality": "bold",
    "run_id": 4,
    "subject_id": "203",
    "task_id": "rest",
    "time": {
      "samples": {
        "AcquisitionNumber": [
          1,
          2,
          3,
          4,
          5,
          6,
          7,
          8,
          9,
          10,
          11,
          12,
          13,
          14,
          15,
          16,
          17,
          18,
          19,
          20,
          21,
          22,
          23,
          24,
          25,
          26,
          27,
          28,
          29,
          30,
          31,
          32,
          33,
          34,
          35,
          36,
          37,
          38,
          39,
          40,
          41,
          42,
          43,
          44,
          45,
          46,
          47,
          48,
          49,
          50,
          51,
          52,
          53,
          54,
          55,
          56,
          57,
          58,
          59,
          60,
          61,
          62,
          63,
          64,
          65,
          66,
          67,
          68,
          69,
          70,
          71,
          72,
          73,
          74,
          75,
          76,
          77,
          78,
          79,
          80,
          81,
          82,
          83,
          84,
          85,
          86,
          87,
          88,
          89,
          90,
          91,
          92,
          93,
          94,
          95,
          96,
          97,
          98,
          99,
          100,
          101,
          102,
          103,
          104,
          105,
          106,
          107,
          108,
          109,
          110,
          111,
          112,
          113,
          114,
          115,
          116,
          117,
          118,
          119,
          120,
          121,
          122,
          123,
          124,
          125,
          126,
          127,
          128,
          129,
          130,
          131,
          132,
          133,
          134,
          135,
          136,
          137,
          138,
          139,
          140,
          141,
          142,
          143,
          144,
          145,
          146,
          147,
          148,
          149,
          150,
          151,
          152,
          153,
          154,
          155,
          156,
          157,
          158,
          159,
          160,
          161,
          162,
          163,
          164,
          165,
          166,
          167,
          168,
          169,
          170,
          171,
          172,
          173,
          174,
          175,
          176,
          177,
          178,
          179,
          180,
          181,
          182,
          183,
          184,
          185,
          186,
          187,
          188,
          189,
          190,
          191,
          192,
          193,
          194,
          195,
          196,
          197,
          198,
          199,
          200,
          201,
          202,
          203,
          204,
          205,
          206,
          207,
          208,
          209,
          210,
          211,
          212,
          213,
          214,
          215,
          216,
          217,
          218,
          219,
          220,
          221,
          222,
          223,
          224,
          225,
          226,
          227,
          228,
          229,
          230,
          231,
          232,
          233,
          234,
          235,
          236,
          237,
          238,
          239,
          240
        ],
        "AcquisitionTime": [
          "100808.710000",
          "100810.717500",
          "100812.727500",
          "100814.735000",
          "100816.742500",
          "100818.750000",
          "100820.760000",
          "100822.767500",
          "100824.775000",
          "100826.782500",
          "100828.790000",
          "100830.800000",
          "100832.807500",
          "100834.815000",
          "100836.822500",
          "100838.830000",
          "100840.840000",
          "100842.847500",
          "100844.855000",
          "100846.862500",
          "100848.872500",
          "100850.880000",
          "100852.887500",
          "100854.895000",
          "100856.902500",
          "100858.912500",
          "100900.920000",
          "100902.927500",
          "100904.935000",
          "100906.942500",
          "100908.952500",
          "100910.960000",
          "100912.967500",
          "100914.975000",
          "100916.982500",
          "100918.992500",
          "100921.000000",
          "100923.007500",
          "100925.015000",
          "100927.025000",
          "100929.032500",
          "100931.040000",
          "100933.047500",
          "100935.055000",
          "100937.065000",
          "100939.072500",
          "100941.080000",
          "100943.087500",
          "100945.095000",
          "100947.105000",
          "100949.112500",
          "100951.120000",
          "100953.127500",
          "100955.137500",
          "100957.145000",
          "100959.152500",
          "101001.160000",
          "101003.167500",
          "101005.177500",
          "101007.185000",
          "101009.192500",
          "101011.200000",
          "101013.207500",
          "101015.217500",
          "101017.225000",
          "101019.232500",
          "101021.240000",
          "101023.250000",
          "101025.257500",
          "101027.265000",
          "101029.272500",
          "101031.280000",
          "101033.290000",
          "101035.297500",
          "101037.305000",
          "101039.312500",
          "101041.320000",
          "101043.330000",
          "101045.337500",
          "101047.345000",
          "101049.352500",
          "101051.360000",
          "101053.370000",
          "101055.377500",
          "101057.385000",
          "101059.392500",
          "101101.402500",
          "101103.410000",
          "101105.417500",
          "101107.425000",
          "101109.432500",
          "101111.442500",
          "101113.450000",
          "101115.457500",
          "101117.465000",
          "101119.472500",
          "101121.482500",
          "101123.490000",
          "101125.497500",
          "101127.505000",
          "101129.515000",
          "101131.522500",
          "101133.530000",
          "101135.537500",
          "101137.545000",
          "101139.555000",
          "101141.562500",
          "101143.570000",
          "101145.577500",
          "101147.585000",
          "101149.595000",
          "101151.602500",
          "101153.610000",
          "101155.617500",
          "101157.627500",
          "101159.635000",
          "101201.642500",
          "101203.650000",
          "101205.657500",
          "101207.667500",
          "101209.675000",
          "101211.682500",
          "101213.690000",
          "101215.697500",
          "101217.707500",
          "101219.715000",
          "101221.722500",
          "101223.730000",
          "101225.740000",
          "101227.747500",
          "101229.755000",
          "101231.762500",
          "101233.770000",
          "101235.780000",
          "101237.787500",
          "101239.795000",
          "101241.802500",
          "101243.810000",
          "101245.820000",
          "101247.827500",
          "101249.835000",
          "101251.842500",
          "101253.850000",
          "101255.860000",
          "101257.867500",
          "101259.875000",
          "101301.882500",
          "101303.892500",
          "101305.900000",
          "101307.907500",
          "101309.915000",
          "101311.922500",
          "101313.932500",
          "101315.940000",
          "101317.947500",
          "101319.955000",
          "101321.962500",
          "101323.972500",
          "101325.980000",
          "101327.987500",
          "101329.995000",
          "101332.005000",
          "101334.012500",
          "101336.020000",
          "101338.027500",
          "101340.035000",
          "101342.045000",
          "101344.052500",
          "101346.060000",
          "101348.067500",
          "101350.075000",
          "101352.085000",
          "101354.092500",
          "101356.100000",
          "101358.107500",
          "101400.117500",
          "101402.125000",
          "101404.132500",
          "101406.140000",
          "101408.147500",
          "101410.157500",
          "101412.165000",
          "101414.172500",
          "101416.180000",
          "101418.187500",
          "101420.197500",
          "101422.205000",
          "101424.212500",
          "101426.220000",
          "101428.227500",
          "101430.237500",
          "101432.245000",
          "101434.252500",
          "101436.260000",
          "101438.270000",
          "101440.277500",
          "101442.285000",
          "101444.292500",
          "101446.300000",
          "101448.310000",
          "101450.317500",
          "101452.325000",
          "101454.332500",
          "101456.340000",
          "101458.350000",
          "101500.357500",
          "101502.365000",
          "101504.372500",
          "101506.382500",
          "101508.390000",
          "101510.397500",
          "101512.405000",
          "101514.412500",
          "101516.422500",
          "101518.430000",
          "101520.437500",
          "101522.445000",
          "101524.452500",
          "101526.462500",
          "101528.470000",
          "101530.477500",
          "101532.485000",
          "101534.495000",
          "101536.502500",
          "101538.510000",
          "101540.517500",
          "101542.525000",
          "101544.535000",
          "101546.542500",
          "101548.550000",
          "101550.557500",
          "101552.565000",
          "101554.575000",
          "101556.582500",
          "101558.590000",
          "101600.597500",
          "101602.605000",
          "101604.615000",
          "101606.622500",
          "101608.630000"
        ],
        "ContentTime": [
          "100904.015000",
          "100904.015000",
          "100904.015000",
          "100904.015000",
          "100904.015000",
          "100904.031000",
          "100904.031000",
          "100904.031000",
          "100904.031000",
          "100904.031000",
          "100904.031000",
          "100904.031000",
          "100904.031000",
          "100904.046000",
          "100904.046000",
          "100904.046000",
          "100904.046000",
          "100904.046000",
          "100904.046000",
          "100904.046000",
          "100904.062000",
          "100904.062000",
          "100904.062000",
          "100904.062000",
          "100904.062000",
          "100904.062000",
          "100904.062000",
          "100944.015000",
          "100944.015000",
          "100944.015000",
          "100944.015000",
          "100944.015000",
          "100944.015000",
          "100944.015000",
          "100944.031000",
          "100944.031000",
          "100944.031000",
          "100944.031000",
          "100944.031000",
          "100944.031000",
          "100944.031000",
          "100944.031000",
          "100944.046000",
          "100944.046000",
          "100944.046000",
          "100944.046000",
          "100944.046000",
          "101024.015000",
          "101024.015000",
          "101024.015000",
          "101024.015000",
          "101024.015000",
          "101024.015000",
          "101024.015000",
          "101024.031000",
          "101024.031000",
          "101024.031000",
          "101024.031000",
          "101024.031000",
          "101024.031000",
          "101024.031000",
          "101024.031000",
          "101024.046000",
          "101024.046000",
          "101024.046000",
          "101024.046000",
          "101024.046000",
          "101104.015000",
          "101104.015000",
          "101104.015000",
          "101104.015000",
          "101104.015000",
          "101104.015000",
          "101104.015000",
          "101104.031000",
          "101104.031000",
          "101104.031000",
          "101104.031000",
          "101104.031000",
          "101104.031000",
          "101104.031000",
          "101104.046000",
          "101104.046000",
          "101104.046000",
          "101104.046000",
          "101104.046000",
          "101104.046000",
          "101144.015000",
          "101144.015000",
          "101144.015000",
          "101144.015000",
          "101144.015000",
          "101144.015000",
          "101144.015000",
          "101144.031000",
          "101144.031000",
          "101144.031000",
          "101144.031000",
          "101144.031000",
          "101144.031000",
          "101144.031000",
          "101144.031000",
          "101144.046000",
          "101144.046000",
          "101144.046000",
          "101144.046000",
          "101144.046000",
          "101224.015000",
          "101224.015000",
          "101224.015000",
          "101224.015000",
          "101224.015000",
          "101224.031000",
          "101224.031000",
          "101224.031000",
          "101224.046000",
          "101224.046000",
          "101224.046000",
          "101224.046000",
          "101224.046000",
          "101224.046000",
          "101224.046000",
          "101224.046000",
          "101224.062000",
          "101224.062000",
          "101224.062000",
          "101224.062000",
          "101304.015000",
          "101304.015000",
          "101304.015000",
          "101304.015000",
          "101304.015000",
          "101304.015000",
          "101304.015000",
          "101304.031000",
          "101304.031000",
          "101304.031000",
          "101304.031000",
          "101304.031000",
          "101304.031000",
          "101304.031000",
          "101304.031000",
          "101304.046000",
          "101304.046000",
          "101304.046000",
          "101304.046000",
          "101304.046000",
          "101344.015000",
          "101344.015000",
          "101344.015000",
          "101344.015000",
          "101344.015000",
          "101344.015000",
          "101344.015000",
          "101344.031000",
          "101344.031000",
          "101344.031000",
          "101344.031000",
          "101344.031000",
          "101344.031000",
          "101344.031000",
          "101344.031000",
          "101344.046000",
          "101344.046000",
          "101344.046000",
          "101344.046000",
          "101344.046000",
          "101424.015000",
          "101424.015000",
          "101424.015000",
          "101424.015000",
          "101424.015000",
          "101424.015000",
          "101424.015000",
          "101424.031000",
          "101424.031000",
          "101424.031000",
          "101424.031000",
          "101424.031000",
          "101424.031000",
          "101424.031000",
          "101424.046000",
          "101424.046000",
          "101424.046000",
          "101424.046000",
          "101424.046000",
          "101424.046000",
          "101504.015000",
          "101504.015000",
          "101504.015000",
          "101504.015000",
          "101504.015000",
          "101504.015000",
          "101504.015000",
          "101504.031000",
          "101504.031000",
          "101504.031000",
          "101504.031000",
          "101504.031000",
          "101504.031000",
          "101504.031000",
          "101504.046000",
          "101504.046000",
          "101504.046000",
          "101504.046000",
          "101504.046000",
          "101504.046000",
          "101544.015000",
          "101544.015000",
          "101544.015000",
          "101544.015000",
          "101544.015000",
          "101544.015000",
          "101544.015000",
          "101544.031000",
          "101544.031000",
          "101544.031000",
          "101544.031000",
          "101544.031000",
          "101544.031000",
          "101544.031000",
          "101544.031000",
          "101544.046000",
          "101544.046000",
          "101544.046000",
          "101544.046000",
          "101544.046000",
          "101609.031000",
          "101609.031000",
          "101609.031000",
          "101609.031000",
          "101609.031000",
          "101609.031000",
          "101609.031000",
          "101609.046000",
          "101609.046000",
          "101609.046000",
          "101609.046000",
          "101609.046000",
          "101609.046000"
        ],
        "InstanceCreationTime": [
          "100904.015000",
          "100904.015000",
          "100904.015000",
          "100904.015000",
          "100904.015000",
          "100904.031000",
          "100904.031000",
          "100904.031000",
          "100904.031000",
          "100904.031000",
          "100904.031000",
          "100904.031000",
          "100904.031000",
          "100904.046000",
          "100904.046000",
          "100904.046000",
          "100904.046000",
          "100904.046000",
          "100904.046000",
          "100904.046000",
          "100904.062000",
          "100904.062000",
          "100904.062000",
          "100904.062000",
          "100904.062000",
          "100904.062000",
          "100904.062000",
          "100944.015000",
          "100944.015000",
          "100944.015000",
          "100944.015000",
          "100944.015000",
          "100944.015000",
          "100944.015000",
          "100944.031000",
          "100944.031000",
          "100944.031000",
          "100944.031000",
          "100944.031000",
          "100944.031000",
          "100944.031000",
          "100944.031000",
          "100944.046000",
          "100944.046000",
          "100944.046000",
          "100944.046000",
          "100944.046000",
          "101024.015000",
          "101024.015000",
          "101024.015000",
          "101024.015000",
          "101024.015000",
          "101024.015000",
          "101024.015000",
          "101024.031000",
          "101024.031000",
          "101024.031000",
          "101024.031000",
          "101024.031000",
          "101024.031000",
          "101024.031000",
          "101024.031000",
          "101024.046000",
          "101024.046000",
          "101024.046000",
          "101024.046000",
          "101024.046000",
          "101104.015000",
          "101104.015000",
          "101104.015000",
          "101104.015000",
          "101104.015000",
          "101104.015000",
          "101104.015000",
          "101104.031000",
          "101104.031000",
          "101104.031000",
          "101104.031000",
          "101104.031000",
          "101104.031000",
          "101104.031000",
          "101104.046000",
          "101104.046000",
          "101104.046000",
          "101104.046000",
          "101104.046000",
          "101104.046000",
          "101144.015000",
          "101144.015000",
          "101144.015000",
          "101144.015000",
          "101144.015000",
          "101144.015000",
          "101144.015000",
          "101144.031000",
          "101144.031000",
          "101144.031000",
          "101144.031000",
          "101144.031000",
          "101144.031000",
          "101144.031000",
          "101144.031000",
          "101144.046000",
          "101144.046000",
          "101144.046000",
          "101144.046000",
          "101144.046000",
          "101224.015000",
          "101224.015000",
          "101224.015000",
          "101224.015000",
          "101224.015000",
          "101224.031000",
          "101224.031000",
          "101224.031000",
          "101224.046000",
          "101224.046000",
          "101224.046000",
          "101224.046000",
          "101224.046000",
          "101224.046000",
          "101224.046000",
          "101224.046000",
          "101224.062000",
          "101224.062000",
          "101224.062000",
          "101224.062000",
          "101304.015000",
          "101304.015000",
          "101304.015000",
          "101304.015000",
          "101304.015000",
          "101304.015000",
          "101304.015000",
          "101304.031000",
          "101304.031000",
          "101304.031000",
          "101304.031000",
          "101304.031000",
          "101304.031000",
          "101304.031000",
          "101304.031000",
          "101304.046000",
          "101304.046000",
          "101304.046000",
          "101304.046000",
          "101304.046000",
          "101344.015000",
          "101344.015000",
          "101344.015000",
          "101344.015000",
          "101344.015000",
          "101344.015000",
          "101344.015000",
          "101344.031000",
          "101344.031000",
          "101344.031000",
          "101344.031000",
          "101344.031000",
          "101344.031000",
          "101344.031000",
          "101344.031000",
          "101344.046000",
          "101344.046000",
          "101344.046000",
          "101344.046000",
          "101344.046000",
          "101424.015000",
          "101424.015000",
          "101424.015000",
          "101424.015000",
          "101424.015000",
          "101424.015000",
          "101424.015000",
          "101424.031000",
          "101424.031000",
          "101424.031000",
          "101424.031000",
          "101424.031000",
          "101424.031000",
          "101424.031000",
          "101424.046000",
          "101424.046000",
          "101424.046000",
          "101424.046000",
          "101424.046000",
          "101424.046000",
          "101504.015000",
          "101504.015000",
          "101504.015000",
          "101504.015000",
          "101504.015000",
          "101504.015000",
          "101504.015000",
          "101504.031000",
          "101504.031000",
          "101504.031000",
          "101504.031000",
          "101504.031000",
          "101504.031000",
          "101504.031000",
          "101504.046000",
          "101504.046000",
          "101504.046000",
          "101504.046000",
          "101504.046000",
          "101504.046000",
          "101544.015000",
          "101544.015000",
          "101544.015000",
          "101544.015000",
          "101544.015000",
          "101544.015000",
          "101544.015000",
          "101544.031000",
          "101544.031000",
          "101544.031000",
          "101544.031000",
          "101544.031000",
          "101544.031000",
          "101544.031000",
          "101544.031000",
          "101544.046000",
          "101544.046000",
          "101544.046000",
          "101544.046000",
          "101544.046000",
          "101609.031000",
          "101609.031000",
          "101609.031000",
          "101609.031000",
          "101609.031000",
          "101609.031000",
          "101609.031000",
          "101609.046000",
          "101609.046000",
          "101609.046000",
          "101609.046000",
          "101609.046000",
          "101609.046000"
        ],
        "InstanceNumber": [
          1,
          2,
          3,
          4,
          5,
          6,
          7,
          8,
          9,
          10,
          11,
          12,
          13,
          14,
          15,
          16,
          17,
          18,
          19,
          20,
          21,
          22,
          23,
          24,
          25,
          26,
          27,
          28,
          29,
          30,
          31,
          32,
          33,
          34,
          35,
          36,
          37,
          38,
          39,
          40,
          41,
          42,
          43,
          44,
          45,
          46,
          47,
