{
  "aor": 0.0004186290322580645,
  "aqi": 0.005797029637096774,
  "bids_meta": {
    "AcquisitionMatrixPE": 68,
    "AcquisitionNumber": 1,
    "AcquisitionTime": "09:21:13.847500",
    "BandwidthPerPixelPhaseEncode": 31.289,
    "BaseResolution": 68,
    "CogAtlasID": "TODO",
    "CoilString": "C:HEA;HEP",
    "ConversionSoftware": "dcm2niix",
    "ConversionSoftwareVersion": "v1.0.20190902",
    "DerivedVendorReportedEchoSpacing": 0.000470002,
    "DeviceSerialNumber": "35450",
    "DwellTime": 3e-06,
    "EchoTime": 0.023,
    "EffectiveEchoSpacing": 0.000470002,
    "FlipAngle": 76,
    "ImageOrientationPatientDICOM": [
      0.999962,
      0.0020224,
      0.00848896,
      -4.18132e-08,
      0.972776,
      -0.231748
    ],
    "ImageType": [
      "ORIGINAL",
      "PRIMARY",
      "M",
      "ND",
      "MOSAIC"
    ],
    "ImagingFrequency": 123.219,
    "InPlanePhaseEncodingDirectionDICOM": "COL",
    "InstitutionAddress": "Univeristy_Ave._197_Newark_North_East_US_07102-1814",
    "InstitutionName": "RUBIC",
    "InstitutionalDepartmentName": "Department",
    "MRAcquisitionType": "2D",
    "MagneticFieldStrength": 3,
    "Manufacturer": "Siemens",
    "ManufacturersModelName": "TrioTim",
    "Modality": "MR",
    "PartialFourier": 1,
    "PatientPosition": "HFS",
    "PercentPhaseFOV": 100,
    "PhaseEncodingDirection": "j-",
    "PhaseEncodingSteps": 68,
    "PhaseResolution": 1,
    "PixelBandwidth": 2451,
    "ProcedureStepDescription": "Krekelberg_David",
    "ProtocolName": "ep2d_bold_CardGameEPI",
    "PulseSequenceDetails": "%SiemensSeq%_ep2d_bold",
    "ReceiveCoilName": "HeadMatrix",
    "ReconMatrixPE": 68,
    "RepetitionTime": 2,
    "SAR": 0.191377,
    "ScanOptions": "FS",
    "ScanningSequence": "EP",
    "SequenceName": "_epfid2d1_68",
    "SequenceVariant": "SK",
    "SeriesDescription": "ep2d_bold_CardGameEPI",
    "SeriesNumber": 6,
    "ShimSetting": [
      1986,
      -527,
      -7580,
      697,
      15,
      76,
      -374,
      -71
    ],
    "SliceThickness": 2.5,
    "SliceTiming": [
      1.9525,
      1.895,
      1.84,
      1.785,
      1.7275,
      1.6725,
      1.6175,
      1.5625,
      1.505,
      1.45,
      1.395,
      1.3375,
      1.2825,
      1.2275,
      1.17,
      1.115,
      1.06,
      1.005,
      0.9475,
      0.8925,
      0.8375,
      0.78,
      0.725,
      0.67,
      0.6125,
      0.5575,
      0.5025,
      0.445,
      0.39,
      0.335,
      0.28,
      0.2225,
      0.1675,
      0.1125,
      0.055,
      0
    ],
    "SoftwareVersions": "syngo_MR_B19",
    "SpacingBetweenSlices": 3,
    "StationName": "MRC35450",
    "TaskName": "cardgame",
    "TotalReadoutTime": 0.0314901,
    "TxRefAmp": 435.438,
    "dataset": "<unset>",
    "dcmmeta_affine": [
      [
        -2.9998857975006104,
        -1.2543948457732768e-07,
        0.026179632171988487,
        105.60577392578125
      ],
      [
        -0.00606719683855772,
        2.918327569961548,
        -0.6952172517776489,
        -72.39857482910156
      ],
      [
        0.025466885417699814,
        0.6952437162399292,
        2.9182164669036865,
        -58.605552673339844
      ],
      [
        0.0,
        0.0,
        0.0,
        1.0
      ]
    ],
    "dcmmeta_reorient_transform": [
      [
        0.0,
        -1.0,
        0.0,
        67.0
      ],
      [
        1.0,
        0.0,
        0.0,
        0.0
      ],
      [
        0.0,
        0.0,
        1.0,
        0.0
      ],
      [
        0.0,
        0.0,
        0.0,
        1.0
      ]
    ],
    "dcmmeta_shape": [
      68,
      68,
      36,
      248
    ],
    "dcmmeta_slice_dim": 2,
    "dcmmeta_version": 0.6,
    "global": {
      "const": {
        "AcquisitionMatrix": [
          68,
          0,
          0,
          68
        ],
        "AngioFlag": "N",
        "BitsAllocated": 16,
        "BitsStored": 12,
        "Columns": 408,
        "EchoNumbers": 1,
        "EchoTime": 23.0,
        "EchoTrainLength": 1,
        "FlipAngle": 76.0,
        "HighBit": 11,
        "ImageOrientationPatient": [
          0.99996192298765,
          0.00202239900684,
          0.00848896207399,
          -4.1813161e-08,
          0.97277587834468,
          -0.2317479029263
        ],
        "ImagePositionPatient": [
          -615.58632499011,
          -620.27649881835,
          101.83783712754
        ],
        "ImageType": [
          "ORIGINAL",
          "PRIMARY",
          "M",
          "ND",
          "MOSAIC"
        ],
        "ImagedNucleus": "1H",
        "ImagingFrequency": 123.218568,
        "InPlanePhaseEncodingDirection": "COL",
        "MRAcquisitionType": "2D",
        "MagneticFieldStrength": 3.0,
        "Manufacturer": "SIEMENS",
        "ManufacturerModelName": "TrioTim",
        "Modality": "MR",
        "NumberOfAverages": 1.0,
        "NumberOfPhaseEncodingSteps": 68,
        "PercentPhaseFieldOfView": 100.0,
        "PercentSampling": 100.0,
        "PerformedProcedureStepStartTime": "085933.765000",
        "PhotometricInterpretation": "MONOCHROME2",
        "PixelBandwidth": 2451.0,
        "PixelRepresentation": 0,
        "PixelSpacing": [
          3.0,
          3.0
        ],
        "ProtocolName": "ep2d_bold_CardGameEPI",
        "RepetitionTime": 2000.0,
        "Rows": 408,
        "SAR": 0.19137719383792,
        "SamplesPerPixel": 1,
        "ScanOptions": "FS",
        "ScanningSequence": "EP",
        "SequenceName": "*epfid2d1_68",
        "SequenceVariant": "SK",
        "SeriesDescription": "ep2d_bold_CardGameEPI",
        "SeriesNumber": 6,
        "SeriesTime": "092124.640000",
        "SliceLocation": -39.308743459734,
        "SliceThickness": 2.5,
        "SmallestImagePixelValue": 0,
        "SoftwareVersions": "syngo MR B19",
        "SpacingBetweenSlices": 2.999999978053,
        "SpecificCharacterSet": "ISO_IR 100",
        "StudyID": "1",
        "StudyTime": "085933.437000",
        "TransmitCoilName": "Body",
        "VariableFlipAngleFlag": "N",
        "WindowCenterWidthExplanation": "Algo1",
        "dBdt": 0.0
      },
      "slices": {}
    },
    "modality": "bold",
    "run_id": 1,
    "subject_id": "203",
    "task_id": "cardgame",
    "time": {
      "samples": {
        "AcquisitionNumber": [
          1,
          2,
          3,
          4,
          5,
          6,
          7,
          8,
          9,
          10,
          11,
          12,
          13,
          14,
          15,
          16,
          17,
          18,
          19,
          20,
          21,
          22,
          23,
          24,
          25,
          26,
          27,
          28,
          29,
          30,
          31,
          32,
          33,
          34,
          35,
          36,
          37,
          38,
          39,
          40,
          41,
          42,
          43,
          44,
          45,
          46,
          47,
          48,
          49,
          50,
          51,
          52,
          53,
          54,
          55,
          56,
          57,
          58,
          59,
          60,
          61,
          62,
          63,
          64,
          65,
          66,
          67,
          68,
          69,
          70,
          71,
          72,
          73,
          74,
          75,
          76,
          77,
          78,
          79,
          80,
          81,
          82,
          83,
          84,
          85,
          86,
          87,
          88,
          89,
          90,
          91,
          92,
          93,
          94,
          95,
          96,
          97,
          98,
          99,
          100,
          101,
          102,
          103,
          104,
          105,
          106,
          107,
          108,
          109,
          110,
          111,
          112,
          113,
          114,
          115,
          116,
          117,
          118,
          119,
          120,
          121,
          122,
          123,
          124,
          125,
          126,
          127,
          128,
          129,
          130,
          131,
          132,
          133,
          134,
          135,
          136,
          137,
          138,
          139,
          140,
          141,
          142,
          143,
          144,
          145,
          146,
          147,
          148,
          149,
          150,
          151,
          152,
          153,
          154,
          155,
          156,
          157,
          158,
          159,
          160,
          161,
          162,
          163,
          164,
          165,
          166,
          167,
          168,
          169,
          170,
          171,
          172,
          173,
          174,
          175,
          176,
          177,
          178,
          179,
          180,
          181,
          182,
          183,
          184,
          185,
          186,
          187,
          188,
          189,
          190,
          191,
          192,
          193,
          194,
          195,
          196,
          197,
          198,
          199,
          200,
          201,
          202,
          203,
          204,
          205,
          206,
          207,
          208,
          209,
          210,
          211,
          212,
          213,
          214,
          215,
          216,
          217,
          218,
          219,
          220,
          221,
          222,
          223,
          224,
          225,
          226,
          227,
          228,
          229,
          230,
          231,
          232,
          233,
          234,
          235,
          236,
          237,
          238,
          239,
          240,
          241,
          242,
          243,
          244,
          245,
          246,
          247,
          248
        ],
        "AcquisitionTime": [
          "092113.847500",
          "092115.855000",
          "092117.862500",
          "092119.870000",
          "092121.880000",
          "092123.887500",
          "092125.895000",
          "092127.902500",
          "092129.910000",
          "092131.920000",
          "092133.927500",
          "092135.935000",
          "092137.942500",
          "092139.950000",
          "092141.960000",
          "092143.967500",
          "092145.975000",
          "092147.982500",
          "092149.992500",
          "092152.000000",
          "092154.007500",
          "092156.015000",
          "092158.022500",
          "092200.032500",
          "092202.040000",
          "092204.047500",
          "092206.055000",
          "092208.062500",
          "092210.072500",
          "092212.080000",
          "092214.087500",
          "092216.095000",
          "092218.105000",
          "092220.112500",
          "092222.120000",
          "092224.127500",
          "092226.135000",
          "092228.145000",
          "092230.152500",
          "092232.160000",
          "092234.167500",
          "092236.175000",
          "092238.185000",
          "092240.192500",
          "092242.200000",
          "092244.207500",
          "092246.215000",
          "092248.225000",
          "092250.232500",
          "092252.240000",
          "092254.247500",
          "092256.257500",
          "092258.265000",
          "092300.272500",
          "092302.280000",
          "092304.287500",
          "092306.297500",
          "092308.305000",
          "092310.312500",
          "092312.320000",
          "092314.327500",
          "092316.337500",
          "092318.345000",
          "092320.352500",
          "092322.360000",
          "092324.370000",
          "092326.377500",
          "092328.385000",
          "092330.392500",
          "092332.400000",
          "092334.410000",
          "092336.417500",
          "092338.425000",
          "092340.432500",
          "092342.440000",
          "092344.450000",
          "092346.457500",
          "092348.465000",
          "092350.472500",
          "092352.482500",
          "092354.490000",
          "092356.497500",
          "092358.505000",
          "092400.512500",
          "092402.522500",
          "092404.530000",
          "092406.537500",
          "092408.545000",
          "092410.552500",
          "092412.562500",
          "092414.570000",
          "092416.577500",
          "092418.585000",
          "092420.595000",
          "092422.602500",
          "092424.610000",
          "092426.617500",
          "092428.625000",
          "092430.635000",
          "092432.642500",
          "092434.650000",
          "092436.657500",
          "092438.665000",
          "092440.675000",
          "092442.682500",
          "092444.690000",
          "092446.697500",
          "092448.705000",
          "092450.715000",
          "092452.722500",
          "092454.730000",
          "092456.737500",
          "092458.747500",
          "092500.755000",
          "092502.762500",
          "092504.770000",
          "092506.777500",
          "092508.787500",
          "092510.795000",
          "092512.802500",
          "092514.810000",
          "092516.817500",
          "092518.827500",
          "092520.835000",
          "092522.842500",
          "092524.850000",
          "092526.860000",
          "092528.867500",
          "092530.875000",
          "092532.882500",
          "092534.890000",
          "092536.900000",
          "092538.907500",
          "092540.915000",
          "092542.922500",
          "092544.930000",
          "092546.940000",
          "092548.947500",
          "092550.955000",
          "092552.962500",
          "092554.972500",
          "092556.980000",
          "092558.987500",
          "092600.995000",
          "092603.002500",
          "092605.012500",
          "092607.020000",
          "092609.027500",
          "092611.035000",
          "092613.042500",
          "092615.052500",
          "092617.060000",
          "092619.067500",
          "092621.075000",
          "092623.082500",
          "092625.092500",
          "092627.100000",
          "092629.107500",
          "092631.115000",
          "092633.125000",
          "092635.132500",
          "092637.140000",
          "092639.147500",
          "092641.155000",
          "092643.165000",
          "092645.172500",
          "092647.180000",
          "092649.187500",
          "092651.195000",
          "092653.205000",
          "092655.212500",
          "092657.220000",
          "092659.227500",
          "092701.237500",
          "092703.245000",
          "092705.252500",
          "092707.260000",
          "092709.267500",
          "092711.277500",
          "092713.285000",
          "092715.292500",
          "092717.300000",
          "092719.307500",
          "092721.317500",
          "092723.325000",
          "092725.332500",
          "092727.340000",
          "092729.350000",
          "092731.357500",
          "092733.365000",
          "092735.372500",
          "092737.380000",
          "092739.390000",
          "092741.397500",
          "092743.405000",
          "092745.412500",
          "092747.420000",
          "092749.430000",
          "092751.437500",
          "092753.445000",
          "092755.452500",
          "092757.460000",
          "092759.470000",
          "092801.477500",
          "092803.485000",
          "092805.492500",
          "092807.502500",
          "092809.510000",
          "092811.517500",
          "092813.525000",
          "092815.532500",
          "092817.542500",
          "092819.550000",
          "092821.557500",
          "092823.565000",
          "092825.572500",
          "092827.582500",
          "092829.590000",
          "092831.597500",
          "092833.605000",
          "092835.615000",
          "092837.622500",
          "092839.630000",
          "092841.637500",
          "092843.645000",
          "092845.655000",
          "092847.662500",
          "092849.670000",
          "092851.677500",
          "092853.685000",
          "092855.695000",
          "092857.702500",
          "092859.710000",
          "092901.717500",
          "092903.727500",
          "092905.735000",
          "092907.742500",
          "092909.750000",
          "092911.757500",
          "092913.767500",
          "092915.775000",
          "092917.782500",
          "092919.790000",
          "092921.797500",
          "092923.807500",
          "092925.815000",
          "092927.822500",
          "092929.830000"
        ],
        "ContentTime": [
          "092124.640000",
          "092124.640000",
          "092124.640000",
          "092124.640000",
          "092124.640000",
          "092204.640000",
          "092204.640000",
          "092204.640000",
          "092204.640000",
          "092204.640000",
          "092204.640000",
          "092204.640000",
          "092204.656000",
          "092204.656000",
          "092204.656000",
          "092204.656000",
          "092204.656000",
          "092204.656000",
          "092204.656000",
          "092204.656000",
          "092204.671000",
          "092204.671000",
          "092204.671000",
          "092204.671000",
          "092204.671000",
          "092244.640000",
          "092244.640000",
          "092244.640000",
          "092244.640000",
          "092244.640000",
          "092244.640000",
          "092244.640000",
          "092244.656000",
          "092244.656000",
          "092244.656000",
          "092244.656000",
          "092244.656000",
          "092244.656000",
          "092244.656000",
          "092244.656000",
          "092244.671000",
          "092244.671000",
          "092244.671000",
          "092244.671000",
          "092244.671000",
          "092324.640000",
          "092324.640000",
          "092324.640000",
          "092324.640000",
          "092324.640000",
          "092324.640000",
          "092324.640000",
          "092324.656000",
          "092324.656000",
          "092324.656000",
          "092324.656000",
          "092324.656000",
          "092324.656000",
          "092324.656000",
          "092324.656000",
          "092324.671000",
          "092324.671000",
          "092324.671000",
          "092324.671000",
          "092324.671000",
          "092404.640000",
          "092404.640000",
          "092404.640000",
          "092404.640000",
          "092404.640000",
          "092404.640000",
          "092404.640000",
          "092404.656000",
          "092404.656000",
          "092404.656000",
          "092404.656000",
          "092404.656000",
          "092404.656000",
          "092404.656000",
          "092404.656000",
          "092404.671000",
          "092404.671000",
          "092404.671000",
          "092404.671000",
          "092404.671000",
          "092444.640000",
          "092444.640000",
          "092444.640000",
          "092444.640000",
          "092444.640000",
          "092444.640000",
          "092444.640000",
          "092444.656000",
          "092444.656000",
          "092444.656000",
          "092444.656000",
          "092444.656000",
          "092444.656000",
          "092444.656000",
          "092444.656000",
          "092444.671000",
          "092444.671000",
          "092444.671000",
          "092444.671000",
          "092444.671000",
          "092524.640000",
          "092524.640000",
          "092524.640000",
          "092524.640000",
          "092524.640000",
          "092524.640000",
          "092524.640000",
          "092524.656000",
          "092524.656000",
          "092524.656000",
          "092524.656000",
          "092524.656000",
          "092524.656000",
          "092524.656000",
          "092524.656000",
          "092524.671000",
          "092524.671000",
          "092524.671000",
          "092524.671000",
          "092524.671000",
          "092604.640000",
          "092604.640000",
          "092604.640000",
          "092604.640000",
          "092604.640000",
          "092604.640000",
          "092604.640000",
          "092604.656000",
          "092604.656000",
          "092604.656000",
          "092604.656000",
          "092604.656000",
          "092604.656000",
          "092604.656000",
          "092604.656000",
          "092604.671000",
          "092604.671000",
          "092604.671000",
          "092604.671000",
          "092604.671000",
          "092644.640000",
          "092644.640000",
          "092644.640000",
          "092644.640000",
          "092644.640000",
          "092644.640000",
          "092644.640000",
          "092644.640000",
          "092644.656000",
          "092644.656000",
          "092644.656000",
          "092644.656000",
          "092644.656000",
          "092644.656000",
          "092644.656000",
          "092644.671000",
          "092644.671000",
          "092644.671000",
          "092644.671000",
          "092644.671000",
          "092724.640000",
          "092724.640000",
          "092724.640000",
          "092724.640000",
          "092724.640000",
          "092724.640000",
          "092724.640000",
          "092724.656000",
          "092724.656000",
          "092724.656000",
          "092724.656000",
          "092724.656000",
          "092724.656000",
          "092724.656000",
          "092724.671000",
          "092724.671000",
          "092724.671000",
          "092724.671000",
          "092724.671000",
          "092724.671000",
          "092804.640000",
          "092804.640000",
          "092804.640000",
          "092804.640000",
          "092804.640000",
          "092804.640000",
          "092804.640000",
          "092804.656000",
          "092804.656000",
          "092804.656000",
          "092804.656000",
          "092804.656000",
          "092804.656000",
          "092804.656000",
          "092804.671000",
          "092804.671000",
          "092804.671000",
          "092804.671000",
          "092804.671000",
          "092804.671000",
          "092844.640000",
          "092844.640000",
          "092844.640000",
          "092844.640000",
          "092844.640000",
          "092844.640000",
          "092844.640000",
          "092844.656000",
          "092844.656000",
          "092844.656000",
          "092844.656000",
          "092844.656000",
          "092844.656000",
          "092844.656000",
          "092844.656000",
          "092844.671000",
          "092844.671000",
          "092844.671000",
          "092844.671000",
          "092844.671000",
          "092924.640000",
          "092924.640000",
          "092924.640000",
          "092924.640000",
          "092924.640000",
          "092924.640000",
          "092924.640000",
          "092924.656000",
          "092924.656000",
          "092924.656000",
          "092924.656000",
          "092924.656000",
          "092924.656000",
          "092924.656000",
          "092924.656000",
          "092924.671000",
          "092924.671000",
          "092924.671000",
          "092924.671000",
          "092924.671000",
          "092929.343000",
          "092929.343000",
          "092929.343000"
        ],
        "InstanceCreationTime": [
          "092124.640000",
          "092124.640000",
          "092124.640000",
          "092124.640000",
          "092124.640000",
          "092204.640000",
          "092204.640000",
          "092204.640000",
          "092204.640000",
          "092204.640000",
          "092204.640000",
          "092204.640000",
          "092204.656000",
          "092204.656000",
          "092204.656000",
          "092204.656000",
          "092204.656000",
          "092204.656000",
          "092204.656000",
          "092204.656000",
          "092204.671000",
          "092204.671000",
          "092204.671000",
          "092204.671000",
          "092204.671000",
          "092244.640000",
          "092244.640000",
          "092244.640000",
          "092244.640000",
          "092244.640000",
          "092244.640000",
          "092244.640000",
          "092244.656000",
          "092244.656000",
          "092244.656000",
          "092244.656000",
          "092244.656000",
          "092244.656000",
          "092244.656000",
          "092244.656000",
          "092244.671000",
          "092244.671000",
          "092244.671000",
          "092244.671000",
          "092244.671000",
          "092324.640000",
          "092324.640000",
          "092324.640000",
          "092324.640000",
          "092324.640000",
          "092324.640000",
          "092324.640000",
          "092324.656000",
          "092324.656000",
          "092324.656000",
          "092324.656000",
          "092324.656000",
          "092324.656000",
          "092324.656000",
          "092324.656000",
          "092324.671000",
          "092324.671000",
          "092324.671000",
          "092324.671000",
          "092324.671000",
          "092404.640000",
          "092404.640000",
          "092404.640000",
          "092404.640000",
          "092404.640000",
          "092404.640000",
          "092404.640000",
          "092404.656000",
          "092404.656000",
          "092404.656000",
          "092404.656000",
          "092404.656000",
          "092404.656000",
          "092404.656000",
          "092404.656000",
          "092404.671000",
          "092404.671000",
          "092404.671000",
          "092404.671000",
          "092404.671000",
          "092444.640000",
          "092444.640000",
          "092444.640000",
          "092444.640000",
          "092444.640000",
          "092444.640000",
          "092444.640000",
          "092444.656000",
          "092444.656000",
          "092444.656000",
          "092444.656000",
          "092444.656000",
          "092444.656000",
          "092444.656000",
          "092444.656000",
          "092444.671000",
          "092444.671000",
          "092444.671000",
          "092444.671000",
          "092444.671000",
          "092524.640000",
          "092524.640000",
          "092524.640000",
          "092524.640000",
          "092524.640000",
          "092524.640000",
          "092524.640000",
          "092524.656000",
          "092524.656000",
          "092524.656000",
          "092524.656000",
          "092524.656000",
          "092524.656000",
          "092524.656000",
          "092524.656000",
          "092524.671000",
          "092524.671000",
          "092524.671000",
          "092524.671000",
          "092524.671000",
          "092604.640000",
          "092604.640000",
          "092604.640000",
          "092604.640000",
          "092604.640000",
          "092604.640000",
          "092604.640000",
          "092604.656000",
          "092604.656000",
          "092604.656000",
          "092604.656000",
          "092604.656000",
          "092604.656000",
          "092604.656000",
          "092604.656000",
          "092604.671000",
          "092604.671000",
          "092604.671000",
          "092604.671000",
          "092604.671000",
          "092644.640000",
          "092644.640000",
          "092644.640000",
          "092644.640000",
          "092644.640000",
          "092644.640000",
          "092644.640000",
          "092644.640000",
          "092644.656000",
          "092644.656000",
          "092644.656000",
          "092644.656000",
          "092644.656000",
          "092644.656000",
          "092644.656000",
          "092644.671000",
          "092644.671000",
          "092644.671000",
          "092644.671000",
          "092644.671000",
          "092724.640000",
          "092724.640000",
          "092724.640000",
          "092724.640000",
          "092724.640000",
          "092724.640000",
          "092724.640000",
          "092724.656000",
          "092724.656000",
          "092724.656000",
          "092724.656000",
          "092724.656000",
          "092724.656000",
          "092724.656000",
          "092724.671000",
          "092724.671000",
          "092724.671000",
          "092724.671000",
          "092724.671000",
          "092724.671000",
          "092804.640000",
          "092804.640000",
          "092804.640000",
          "092804.640000",
          "092804.640000",
          "092804.640000",
          "092804.640000",
          "092804.656000",
          "092804.656000",
          "092804.656000",
          "092804.656000",
          "092804.656000",
          "092804.656000",
          "092804.656000",
          "092804.671000",
          "092804.671000",
          "092804.671000",
          "092804.671000",
          "092804.671000",
          "092804.671000",
          "092844.640000",
          "092844.640000",
          "092844.640000",
          "092844.640000",
          "092844.640000",
          "092844.640000",
          "092844.640000",
          "092844.656000",
          "092844.656000",
          "092844.656000",
          "092844.656000",
          "092844.656000",
          "092844.656000",
          "092844.656000",
          "092844.656000",
          "092844.671000",
          "092844.671000",
          "092844.671000",
          "092844.671000",
          "092844.671000",
          "092924.640000",
          "092924.640000",
          "092924.640000",
          "092924.640000",
          "092924.640000",
          "092924.640000",
          "092924.640000",
          "092924.656000",
          "092924.656000",
          "092924.656000",
          "092924.656000",
          "092924.656000",
          "092924.656000",
          "092924.656000",
          "092924.656000",
          "092924.671000",
          "092924.671000",
          "092924.671000",
