{
  "aor": 0.0003750420168067227,
  "aqi": 0.00679424550420168,
  "bids_meta": {
    "AcquisitionMatrixPE": 68,
    "AcquisitionNumber": 1,
    "AcquisitionTime": "14:45:25.280000",
    "BandwidthPerPixelPhaseEncode": 31.289,
    "BaseResolution": 68,
    "CogAtlasID": "TODO",
    "CoilString": "C:HEA;HEP",
    "ConversionSoftware": "dcm2niix",
    "ConversionSoftwareVersion": "v1.0.20190902",
    "DerivedVendorReportedEchoSpacing": 0.000470002,
    "DeviceSerialNumber": "35450",
    "DwellTime": 3e-06,
    "EchoTime": 0.023,
    "EffectiveEchoSpacing": 0.000470002,
    "FlipAngle": 76,
    "ImageOrientationPatientDICOM": [
      0.998027,
      -0.00416133,
      -0.0626525,
      -4.56857e-08,
      0.997801,
      -0.0662739
    ],
    "ImageType": [
      "ORIGINAL",
      "PRIMARY",
      "M",
      "ND",
      "MOSAIC"
    ],
    "ImagingFrequency": 123.219,
    "InPlanePhaseEncodingDirectionDICOM": "COL",
    "InstitutionAddress": "Univeristy_Ave._197_Newark_North_East_US_07102-1814",
    "InstitutionName": "RUBIC",
    "InstitutionalDepartmentName": "Department",
    "MRAcquisitionType": "2D",
    "MagneticFieldStrength": 3,
    "Manufacturer": "Siemens",
    "ManufacturersModelName": "TrioTim",
    "Modality": "MR",
    "PartialFourier": 1,
    "PatientPosition": "HFS",
    "PercentPhaseFOV": 100,
    "PhaseEncodingDirection": "j-",
    "PhaseEncodingSteps": 68,
    "PhaseResolution": 1,
    "PixelBandwidth": 2451,
    "ProcedureStepDescription": "Krekelberg_David",
    "ProtocolName": "ep2d_bold_RestEPI_3",
    "PulseSequenceDetails": "%SiemensSeq%_ep2d_bold",
    "ReceiveCoilName": "HeadMatrix",
    "ReconMatrixPE": 68,
    "RepetitionTime": 2,
    "SAR": 0.183934,
    "ScanOptions": "FS",
    "ScanningSequence": "EP",
    "SequenceName": "_epfid2d1_68",
    "SequenceVariant": "SK",
    "SeriesDescription": "ep2d_bold_RestEPI_3",
    "SeriesNumber": 12,
    "ShimSetting": [
      1898,
      -590,
      -7668,
      882,
      -62,
      200,
      -424,
      -23
    ],
    "SliceThickness": 2.5,
    "SliceTiming": [
      1.9525,
      1.8975,
      1.84,
      1.785,
      1.73,
      1.6725,
      1.6175,
      1.5625,
      1.5075,
      1.45,
      1.395,
      1.34,
      1.2825,
      1.2275,
      1.1725,
      1.115,
      1.06,
      1.005,
      0.9475,
      0.8925,
      0.8375,
      0.7825,
      0.725,
      0.67,
      0.615,
      0.5575,
      0.5025,
      0.4475,
      0.39,
      0.335,
      0.28,
      0.225,
      0.1675,
      0.1125,
      0.0575,
      0
    ],
    "SoftwareVersions": "syngo_MR_B19",
    "SpacingBetweenSlices": 3,
    "StationName": "MRC35450",
    "TaskName": "rest",
    "TotalReadoutTime": 0.0314901,
    "TxRefAmp": 326.752,
    "dataset": "<unset>",
    "dcmmeta_affine": [
      [
        -2.994080066680908,
        -1.3705708568068076e-07,
        -0.18837155401706696,
        108.48506164550781
      ],
      [
        0.012483981437981129,
        2.9934043884277344,
        -0.19842937588691711,
        -76.7635269165039
      ],
      [
        -0.18795742094516754,
        0.19882169365882874,
        2.987497568130493,
        -40.92658233642578
      ],
      [
        0.0,
        0.0,
        0.0,
        1.0
      ]
    ],
    "dcmmeta_reorient_transform": [
      [
        0.0,
        -1.0,
        0.0,
        67.0
      ],
      [
        1.0,
        0.0,
        0.0,
        0.0
      ],
      [
        0.0,
        0.0,
        1.0,
        0.0
      ],
      [
        0.0,
        0.0,
        0.0,
        1.0
      ]
    ],
    "dcmmeta_shape": [
      68,
      68,
      36,
      240
    ],
    "dcmmeta_slice_dim": 2,
    "dcmmeta_version": 0.6,
    "global": {
      "const": {
        "AcquisitionMatrix": [
          68,
          0,
          0,
          68
        ],
        "AngioFlag": "N",
        "BitsAllocated": 16,
        "BitsStored": 12,
        "Columns": 408,
        "EchoNumbers": 1,
        "EchoTime": 23.0,
        "EchoTrainLength": 1,
        "FlipAngle": 76.0,
        "HighBit": 11,
        "ImageOrientationPatient": [
          0.99802672849261,
          -0.0041613270076,
          -0.062652474587,
          -4.5685696e-08,
          0.99780146836257,
          -0.0662738993383
        ],
        "ImagePositionPatient": [
          -617.47866258047,
          -630.55104386825,
          38.146921249977
        ],
        "ImageType": [
          "ORIGINAL",
          "PRIMARY",
          "M",
          "ND",
          "MOSAIC"
        ],
        "ImagedNucleus": "1H",
        "ImagingFrequency": 123.218722,
        "InPlanePhaseEncodingDirection": "COL",
        "MRAcquisitionType": "2D",
        "MagneticFieldStrength": 3.0,
        "Manufacturer": "SIEMENS",
        "ManufacturerModelName": "TrioTim",
        "Modality": "MR",
        "NumberOfAverages": 1.0,
        "NumberOfPhaseEncodingSteps": 68,
        "PercentPhaseFieldOfView": 100.0,
        "PercentSampling": 100.0,
        "PerformedProcedureStepStartTime": "131936.968000",
        "PhotometricInterpretation": "MONOCHROME2",
        "PixelBandwidth": 2451.0,
        "PixelRepresentation": 0,
        "PixelSpacing": [
          3.0,
          3.0
        ],
        "ProtocolName": "ep2d_bold_RestEPI_3",
        "RepetitionTime": 2000.0,
        "Rows": 408,
        "SAR": 0.18393443367599,
        "SamplesPerPixel": 1,
        "ScanOptions": "FS",
        "ScanningSequence": "EP",
        "SequenceName": "*epfid2d1_68",
        "SequenceVariant": "SK",
        "SeriesDescription": "ep2d_bold_RestEPI_3",
        "SeriesNumber": 12,
        "SeriesTime": "144604.515000",
        "SliceLocation": -42.490477120767,
        "SliceThickness": 2.5,
        "SmallestImagePixelValue": 0,
        "SoftwareVersions": "syngo MR B19",
        "SpacingBetweenSlices": 2.9999999955643,
        "SpecificCharacterSet": "ISO_IR 100",
        "StudyID": "1",
        "StudyTime": "131936.937000",
        "TransmitCoilName": "Body",
        "VariableFlipAngleFlag": "N",
        "WindowCenterWidthExplanation": "Algo1",
        "dBdt": 0.0
      },
      "slices": {}
    },
    "modality": "bold",
    "run_id": 3,
    "subject_id": "189",
    "task_id": "rest",
    "time": {
      "samples": {
        "AcquisitionNumber": [
          1,
          2,
          3,
          4,
          5,
          6,
          7,
          8,
          9,
          10,
          11,
          12,
          13,
          14,
          15,
          16,
          17,
          18,
          19,
          20,
          21,
          22,
          23,
          24,
          25,
          26,
          27,
          28,
          29,
          30,
          31,
          32,
          33,
          34,
          35,
          36,
          37,
          38,
          39,
          40,
          41,
          42,
          43,
          44,
          45,
          46,
          47,
          48,
          49,
          50,
          51,
          52,
          53,
          54,
          55,
          56,
          57,
          58,
          59,
          60,
          61,
          62,
          63,
          64,
          65,
          66,
          67,
          68,
          69,
          70,
          71,
          72,
          73,
          74,
          75,
          76,
          77,
          78,
          79,
          80,
          81,
          82,
          83,
          84,
          85,
          86,
          87,
          88,
          89,
          90,
          91,
          92,
          93,
          94,
          95,
          96,
          97,
          98,
          99,
          100,
          101,
          102,
          103,
          104,
          105,
          106,
          107,
          108,
          109,
          110,
          111,
          112,
          113,
          114,
          115,
          116,
          117,
          118,
          119,
          120,
          121,
          122,
          123,
          124,
          125,
          126,
          127,
          128,
          129,
          130,
          131,
          132,
          133,
          134,
          135,
          136,
          137,
          138,
          139,
          140,
          141,
          142,
          143,
          144,
          145,
          146,
          147,
          148,
          149,
          150,
          151,
          152,
          153,
          154,
          155,
          156,
          157,
          158,
          159,
          160,
          161,
          162,
          163,
          164,
          165,
          166,
          167,
          168,
          169,
          170,
          171,
          172,
          173,
          174,
          175,
          176,
          177,
          178,
          179,
          180,
          181,
          182,
          183,
          184,
          185,
          186,
          187,
          188,
          189,
          190,
          191,
          192,
          193,
          194,
          195,
          196,
          197,
          198,
          199,
          200,
          201,
          202,
          203,
          204,
          205,
          206,
          207,
          208,
          209,
          210,
          211,
          212,
          213,
          214,
          215,
          216,
          217,
          218,
          219,
          220,
          221,
          222,
          223,
          224,
          225,
          226,
          227,
          228,
          229,
          230,
          231,
          232,
          233,
          234,
          235,
          236,
          237,
          238,
          239,
          240
        ],
        "AcquisitionTime": [
          "144525.280000",
          "144527.287500",
          "144529.295000",
          "144531.305000",
          "144533.312500",
          "144535.320000",
          "144537.327500",
          "144539.335000",
          "144541.345000",
          "144543.352500",
          "144545.360000",
          "144547.367500",
          "144549.377500",
          "144551.385000",
          "144553.392500",
          "144555.400000",
          "144557.407500",
          "144559.417500",
          "144601.425000",
          "144603.432500",
          "144605.440000",
          "144607.447500",
          "144609.457500",
          "144611.465000",
          "144613.472500",
          "144615.480000",
          "144617.490000",
          "144619.497500",
          "144621.505000",
          "144623.512500",
          "144625.520000",
          "144627.530000",
          "144629.537500",
          "144631.545000",
          "144633.552500",
          "144635.560000",
          "144637.570000",
          "144639.577500",
          "144641.585000",
          "144643.592500",
          "144645.600000",
          "144647.610000",
          "144649.617500",
          "144651.625000",
          "144653.632500",
          "144655.642500",
          "144657.650000",
          "144659.657500",
          "144701.665000",
          "144703.672500",
          "144705.682500",
          "144707.690000",
          "144709.697500",
          "144711.705000",
          "144713.712500",
          "144715.722500",
          "144717.730000",
          "144719.737500",
          "144721.745000",
          "144723.755000",
          "144725.762500",
          "144727.770000",
          "144729.777500",
          "144731.785000",
          "144733.795000",
          "144735.802500",
          "144737.810000",
          "144739.817500",
          "144741.825000",
          "144743.835000",
          "144745.842500",
          "144747.850000",
          "144749.857500",
          "144751.867500",
          "144753.875000",
          "144755.882500",
          "144757.890000",
          "144759.897500",
          "144801.907500",
          "144803.915000",
          "144805.922500",
          "144807.930000",
          "144809.937500",
          "144811.947500",
          "144813.955000",
          "144815.962500",
          "144817.970000",
          "144819.977500",
          "144821.987500",
          "144823.995000",
          "144826.002500",
          "144828.010000",
          "144830.020000",
          "144832.027500",
          "144834.035000",
          "144836.042500",
          "144838.050000",
          "144840.060000",
          "144842.067500",
          "144844.075000",
          "144846.082500",
          "144848.090000",
          "144850.100000",
          "144852.107500",
          "144854.115000",
          "144856.122500",
          "144858.132500",
          "144900.140000",
          "144902.147500",
          "144904.155000",
          "144906.162500",
          "144908.172500",
          "144910.180000",
          "144912.187500",
          "144914.195000",
          "144916.202500",
          "144918.212500",
          "144920.220000",
          "144922.227500",
          "144924.235000",
          "144926.245000",
          "144928.252500",
          "144930.260000",
          "144932.267500",
          "144934.275000",
          "144936.285000",
          "144938.292500",
          "144940.300000",
          "144942.307500",
          "144944.315000",
          "144946.325000",
          "144948.332500",
          "144950.340000",
          "144952.347500",
          "144954.357500",
          "144956.365000",
          "144958.372500",
          "145000.380000",
          "145002.387500",
          "145004.397500",
          "145006.405000",
          "145008.412500",
          "145010.420000",
          "145012.427500",
          "145014.437500",
          "145016.445000",
          "145018.452500",
          "145020.460000",
          "145022.467500",
          "145024.477500",
          "145026.485000",
          "145028.492500",
          "145030.500000",
          "145032.510000",
          "145034.517500",
          "145036.525000",
          "145038.532500",
          "145040.540000",
          "145042.550000",
          "145044.557500",
          "145046.565000",
          "145048.572500",
          "145050.580000",
          "145052.590000",
          "145054.597500",
          "145056.605000",
          "145058.612500",
          "145100.622500",
          "145102.630000",
          "145104.637500",
          "145106.645000",
          "145108.652500",
          "145110.662500",
          "145112.670000",
          "145114.677500",
          "145116.685000",
          "145118.692500",
          "145120.702500",
          "145122.710000",
          "145124.717500",
          "145126.725000",
          "145128.735000",
          "145130.742500",
          "145132.750000",
          "145134.757500",
          "145136.765000",
          "145138.775000",
          "145140.782500",
          "145142.790000",
          "145144.797500",
          "145146.805000",
          "145148.815000",
          "145150.822500",
          "145152.830000",
          "145154.837500",
          "145156.845000",
          "145158.855000",
          "145200.862500",
          "145202.870000",
          "145204.877500",
          "145206.887500",
          "145208.895000",
          "145210.902500",
          "145212.910000",
          "145214.917500",
          "145216.927500",
          "145218.935000",
          "145220.942500",
          "145222.950000",
          "145224.957500",
          "145226.967500",
          "145228.975000",
          "145230.982500",
          "145232.990000",
          "145235.000000",
          "145237.007500",
          "145239.015000",
          "145241.022500",
          "145243.030000",
          "145245.040000",
          "145247.047500",
          "145249.055000",
          "145251.062500",
          "145253.070000",
          "145255.080000",
          "145257.087500",
          "145259.095000",
          "145301.102500",
          "145303.112500",
          "145305.120000",
          "145307.127500",
          "145309.135000",
          "145311.142500",
          "145313.152500",
          "145315.160000",
          "145317.167500",
          "145319.175000",
          "145321.182500",
          "145323.192500",
          "145325.200000"
        ],
        "ContentTime": [
          "144604.515000",
          "144604.515000",
          "144604.531000",
          "144604.531000",
          "144604.531000",
          "144604.531000",
          "144604.531000",
          "144604.531000",
          "144604.531000",
          "144604.531000",
          "144604.546000",
          "144604.546000",
          "144604.546000",
          "144604.546000",
          "144604.546000",
          "144604.546000",
          "144604.546000",
          "144604.546000",
          "144604.562000",
          "144604.562000",
          "144644.515000",
          "144644.515000",
          "144644.515000",
          "144644.515000",
          "144644.531000",
          "144644.531000",
          "144644.531000",
          "144644.531000",
          "144644.531000",
          "144644.531000",
          "144644.531000",
          "144644.531000",
          "144644.546000",
          "144644.546000",
          "144644.546000",
          "144644.546000",
          "144644.546000",
          "144644.546000",
          "144644.546000",
          "144644.546000",
          "144724.515000",
          "144724.515000",
          "144724.515000",
          "144724.515000",
          "144724.531000",
          "144724.531000",
          "144724.531000",
          "144724.531000",
          "144724.531000",
          "144724.531000",
          "144724.531000",
          "144724.531000",
          "144724.546000",
          "144724.546000",
          "144724.546000",
          "144724.546000",
          "144724.546000",
          "144724.546000",
          "144724.546000",
          "144724.562000",
          "144804.515000",
          "144804.515000",
          "144804.515000",
          "144804.515000",
          "144804.515000",
          "144804.531000",
          "144804.531000",
          "144804.531000",
          "144804.531000",
          "144804.531000",
          "144804.531000",
          "144804.531000",
          "144804.546000",
          "144804.546000",
          "144804.546000",
          "144804.546000",
          "144804.546000",
          "144804.546000",
          "144804.546000",
          "144804.546000",
          "144844.515000",
          "144844.515000",
          "144844.515000",
          "144844.515000",
          "144844.515000",
          "144844.531000",
          "144844.531000",
          "144844.531000",
          "144844.531000",
          "144844.531000",
          "144844.531000",
          "144844.531000",
          "144844.546000",
          "144844.546000",
          "144844.546000",
          "144844.546000",
          "144844.546000",
          "144844.546000",
          "144844.546000",
          "144844.546000",
          "144924.515000",
          "144924.515000",
          "144924.515000",
          "144924.515000",
          "144924.515000",
          "144924.531000",
          "144924.531000",
          "144924.531000",
          "144924.531000",
          "144924.531000",
          "144924.531000",
          "144924.531000",
          "144924.546000",
          "144924.562000",
          "144924.562000",
          "144924.562000",
          "144924.562000",
          "144924.562000",
          "144924.562000",
          "144924.562000",
          "145004.515000",
          "145004.515000",
          "145004.515000",
          "145004.515000",
          "145004.531000",
          "145004.531000",
          "145004.531000",
          "145004.531000",
          "145004.531000",
          "145004.531000",
          "145004.531000",
          "145004.531000",
          "145004.546000",
          "145004.546000",
          "145004.546000",
          "145004.546000",
          "145004.546000",
          "145004.546000",
          "145004.546000",
          "145004.546000",
          "145044.515000",
          "145044.515000",
          "145044.515000",
          "145044.515000",
          "145044.515000",
          "145044.531000",
          "145044.531000",
          "145044.531000",
          "145044.531000",
          "145044.531000",
          "145044.531000",
          "145044.531000",
          "145044.546000",
          "145044.546000",
          "145044.546000",
          "145044.546000",
          "145044.546000",
          "145044.546000",
          "145044.546000",
          "145044.546000",
          "145124.515000",
          "145124.515000",
          "145124.515000",
          "145124.515000",
          "145124.531000",
          "145124.531000",
          "145124.531000",
          "145124.531000",
          "145124.531000",
          "145124.531000",
          "145124.531000",
          "145124.531000",
          "145124.546000",
          "145124.546000",
          "145124.546000",
          "145124.546000",
          "145124.546000",
          "145124.546000",
          "145124.546000",
          "145124.546000",
          "145204.515000",
          "145204.515000",
          "145204.515000",
          "145204.515000",
          "145204.531000",
          "145204.531000",
          "145204.531000",
          "145204.531000",
          "145204.531000",
          "145204.531000",
          "145204.531000",
          "145204.531000",
          "145204.546000",
          "145204.546000",
          "145204.546000",
          "145204.546000",
          "145204.546000",
          "145204.546000",
          "145204.546000",
          "145204.546000",
          "145244.515000",
          "145244.515000",
          "145244.515000",
          "145244.515000",
          "145244.515000",
          "145244.531000",
          "145244.531000",
          "145244.531000",
          "145244.531000",
          "145244.531000",
          "145244.531000",
          "145244.531000",
          "145244.546000",
          "145244.546000",
          "145244.546000",
          "145244.546000",
          "145244.546000",
          "145244.546000",
          "145244.546000",
          "145244.546000",
          "145323.828000",
          "145323.828000",
          "145323.828000",
          "145323.828000",
          "145323.828000",
          "145323.828000",
          "145323.843000",
          "145323.843000",
          "145323.843000",
          "145323.843000",
          "145323.843000",
          "145323.843000",
          "145323.843000",
          "145323.843000",
          "145323.859000",
          "145323.859000",
          "145323.859000",
          "145323.859000",
          "145323.859000",
          "145323.859000"
        ],
        "InstanceCreationTime": [
          "144604.515000",
          "144604.515000",
          "144604.531000",
          "144604.531000",
          "144604.531000",
          "144604.531000",
          "144604.531000",
          "144604.531000",
          "144604.531000",
          "144604.531000",
          "144604.546000",
          "144604.546000",
          "144604.546000",
          "144604.546000",
          "144604.546000",
          "144604.546000",
          "144604.546000",
          "144604.546000",
          "144604.562000",
          "144604.562000",
          "144644.515000",
          "144644.515000",
          "144644.515000",
          "144644.515000",
          "144644.531000",
          "144644.531000",
          "144644.531000",
          "144644.531000",
          "144644.531000",
          "144644.531000",
          "144644.531000",
          "144644.531000",
          "144644.546000",
          "144644.546000",
          "144644.546000",
          "144644.546000",
          "144644.546000",
          "144644.546000",
          "144644.546000",
          "144644.546000",
          "144724.515000",
          "144724.515000",
          "144724.515000",
          "144724.515000",
          "144724.531000",
          "144724.531000",
          "144724.531000",
          "144724.531000",
          "144724.531000",
          "144724.531000",
          "144724.531000",
          "144724.531000",
          "144724.546000",
          "144724.546000",
          "144724.546000",
          "144724.546000",
          "144724.546000",
          "144724.546000",
          "144724.546000",
          "144724.562000",
          "144804.515000",
          "144804.515000",
          "144804.515000",
          "144804.515000",
          "144804.515000",
          "144804.531000",
          "144804.531000",
          "144804.531000",
          "144804.531000",
          "144804.531000",
          "144804.531000",
          "144804.531000",
          "144804.546000",
          "144804.546000",
          "144804.546000",
          "144804.546000",
          "144804.546000",
          "144804.546000",
          "144804.546000",
          "144804.546000",
          "144844.515000",
          "144844.515000",
          "144844.515000",
          "144844.515000",
          "144844.515000",
          "144844.531000",
          "144844.531000",
          "144844.531000",
          "144844.531000",
          "144844.531000",
          "144844.531000",
          "144844.531000",
          "144844.546000",
          "144844.546000",
          "144844.546000",
          "144844.546000",
          "144844.546000",
          "144844.546000",
          "144844.546000",
          "144844.546000",
          "144924.515000",
          "144924.515000",
          "144924.515000",
          "144924.515000",
          "144924.515000",
          "144924.531000",
          "144924.531000",
          "144924.531000",
          "144924.531000",
          "144924.531000",
          "144924.531000",
          "144924.531000",
          "144924.546000",
          "144924.562000",
          "144924.562000",
          "144924.562000",
          "144924.562000",
          "144924.562000",
          "144924.562000",
          "144924.562000",
          "145004.515000",
          "145004.515000",
          "145004.515000",
          "145004.515000",
          "145004.531000",
          "145004.531000",
          "145004.531000",
          "145004.531000",
          "145004.531000",
          "145004.531000",
          "145004.531000",
          "145004.531000",
          "145004.546000",
          "145004.546000",
          "145004.546000",
          "145004.546000",
          "145004.546000",
          "145004.546000",
          "145004.546000",
          "145004.546000",
          "145044.515000",
          "145044.515000",
          "145044.515000",
          "145044.515000",
          "145044.515000",
          "145044.531000",
          "145044.531000",
          "145044.531000",
          "145044.531000",
          "145044.531000",
          "145044.531000",
          "145044.531000",
          "145044.546000",
          "145044.546000",
          "145044.546000",
          "145044.546000",
          "145044.546000",
          "145044.546000",
          "145044.546000",
          "145044.546000",
          "145124.515000",
          "145124.515000",
          "145124.515000",
          "145124.515000",
          "145124.531000",
          "145124.531000",
          "145124.531000",
          "145124.531000",
          "145124.531000",
          "145124.531000",
          "145124.531000",
          "145124.531000",
          "145124.546000",
          "145124.546000",
          "145124.546000",
          "145124.546000",
          "145124.546000",
          "145124.546000",
          "145124.546000",
          "145124.546000",
          "145204.515000",
          "145204.515000",
          "145204.515000",
          "145204.515000",
          "145204.531000",
          "145204.531000",
          "145204.531000",
          "145204.531000",
          "145204.531000",
          "145204.531000",
          "145204.531000",
          "145204.531000",
          "145204.546000",
          "145204.546000",
          "145204.546000",
          "145204.546000",
          "145204.546000",
          "145204.546000",
          "145204.546000",
          "145204.546000",
          "145244.515000",
          "145244.515000",
          "145244.515000",
          "145244.515000",
          "145244.515000",
          "145244.531000",
          "145244.531000",
          "145244.531000",
          "145244.531000",
          "145244.531000",
          "145244.531000",
          "145244.531000",
          "145244.546000",
          "145244.546000",
          "145244.546000",
          "145244.546000",
          "145244.546000",
          "145244.546000",
          "145244.546000",
          "145244.546000",
          "145323.828000",
          "145323.828000",
          "145323.828000",
          "145323.828000",
          "145323.828000",
          "145323.828000",
          "145323.843000",
          "145323.843000",
          "145323.843000",
          "145323.843000",
          "145323.843000",
          "145323.843000",
          "145323.843000",
          "145323.843000",
          "145323.859000",
          "145323.859000",
          "145323.859000",
          "145323.859000",
          "145323.859000",
          "145323.859000"
        ],
        "InstanceNumber": [
          1,
          2,
          3,
          4,
          5,
          6,
          7,
          8,
          9,
          10,
          11,
          12,
          13,
          14,
          15,
          16,
          17,
          18,
          19,
          20,
          21,
          22,
          23,
          24,
          25,
          26,
          27,
          28,
          29,
          30,
          31,
          32,
          33,
          34,
          35,
          36,
          37,
          38,
          39,
          40,
          41,
          42,
          43,
          44,
          45,
