{
  "aor": 0.0003203765690376569,
  "aqi": 0.008146887782426778,
  "bids_meta": {
    "AcquisitionMatrixPE": 68,
    "AcquisitionNumber": 1,
    "AcquisitionTime": "14:54:47.475000",
    "BandwidthPerPixelPhaseEncode": 31.289,
    "BaseResolution": 68,
    "CogAtlasID": "TODO",
    "CoilString": "C:HEA;HEP",
    "ConversionSoftware": "dcm2niix",
    "ConversionSoftwareVersion": "v1.0.20190902",
    "DerivedVendorReportedEchoSpacing": 0.000470002,
    "DeviceSerialNumber": "35450",
    "DwellTime": 3e-06,
    "EchoTime": 0.023,
    "EffectiveEchoSpacing": 0.000470002,
    "FlipAngle": 76,
    "ImageOrientationPatientDICOM": [
      0.998027,
      -0.00416133,
      -0.0626525,
      -4.56857e-08,
      0.997801,
      -0.0662739
    ],
    "ImageType": [
      "ORIGINAL",
      "PRIMARY",
      "M",
      "ND",
      "MOSAIC"
    ],
    "ImagingFrequency": 123.219,
    "InPlanePhaseEncodingDirectionDICOM": "COL",
    "InstitutionAddress": "Univeristy_Ave._197_Newark_North_East_US_07102-1814",
    "InstitutionName": "RUBIC",
    "InstitutionalDepartmentName": "Department",
    "MRAcquisitionType": "2D",
    "MagneticFieldStrength": 3,
    "Manufacturer": "Siemens",
    "ManufacturersModelName": "TrioTim",
    "Modality": "MR",
    "PartialFourier": 1,
    "PatientPosition": "HFS",
    "PercentPhaseFOV": 100,
    "PhaseEncodingDirection": "j-",
    "PhaseEncodingSteps": 68,
    "PhaseResolution": 1,
    "PixelBandwidth": 2451,
    "ProcedureStepDescription": "Krekelberg_David",
    "ProtocolName": "ep2d_bold_RestEPI_4",
    "PulseSequenceDetails": "%SiemensSeq%_ep2d_bold",
    "ReceiveCoilName": "HeadMatrix",
    "ReconMatrixPE": 68,
    "RepetitionTime": 2,
    "SAR": 0.183934,
    "ScanOptions": "FS",
    "ScanningSequence": "EP",
    "SequenceName": "_epfid2d1_68",
    "SequenceVariant": "SK",
    "SeriesDescription": "ep2d_bold_RestEPI_4",
    "SeriesNumber": 13,
    "ShimSetting": [
      1898,
      -590,
      -7668,
      882,
      -62,
      200,
      -424,
      -23
    ],
    "SliceThickness": 2.5,
    "SliceTiming": [
      1.95,
      1.895,
      1.84,
      1.785,
      1.7275,
      1.6725,
      1.6175,
      1.56,
      1.505,
      1.45,
      1.3925,
      1.3375,
      1.2825,
      1.225,
      1.17,
      1.115,
      1.06,
      1.0025,
      0.9475,
      0.8925,
      0.835,
      0.78,
      0.725,
      0.6675,
      0.6125,
      0.5575,
      0.5,
      0.445,
      0.39,
      0.335,
      0.2775,
      0.2225,
      0.1675,
      0.11,
      0.055,
      0
    ],
    "SoftwareVersions": "syngo_MR_B19",
    "SpacingBetweenSlices": 3,
    "StationName": "MRC35450",
    "TaskName": "rest",
    "TotalReadoutTime": 0.0314901,
    "TxRefAmp": 326.752,
    "dataset": "<unset>",
    "dcmmeta_affine": [
      [
        -2.994080066680908,
        -1.3705708568068076e-07,
        -0.18837155401706696,
        108.48506164550781
      ],
      [
        0.012483981437981129,
        2.9934043884277344,
        -0.19842937588691711,
        -76.7635269165039
      ],
      [
        -0.18795742094516754,
        0.19882169365882874,
        2.987497568130493,
        -40.92658233642578
      ],
      [
        0.0,
        0.0,
        0.0,
        1.0
      ]
    ],
    "dcmmeta_reorient_transform": [
      [
        0.0,
        -1.0,
        0.0,
        67.0
      ],
      [
        1.0,
        0.0,
        0.0,
        0.0
      ],
      [
        0.0,
        0.0,
        1.0,
        0.0
      ],
      [
        0.0,
        0.0,
        0.0,
        1.0
      ]
    ],
    "dcmmeta_shape": [
      68,
      68,
      36,
      240
    ],
    "dcmmeta_slice_dim": 2,
    "dcmmeta_version": 0.6,
    "global": {
      "const": {
        "AcquisitionMatrix": [
          68,
          0,
          0,
          68
        ],
        "AngioFlag": "N",
        "BitsAllocated": 16,
        "BitsStored": 12,
        "Columns": 408,
        "EchoNumbers": 1,
        "EchoTime": 23.0,
        "EchoTrainLength": 1,
        "FlipAngle": 76.0,
        "HighBit": 11,
        "ImageOrientationPatient": [
          0.99802672849261,
          -0.0041613270076,
          -0.062652474587,
          -4.5685696e-08,
          0.99780146836257,
          -0.0662738993383
        ],
        "ImagePositionPatient": [
          -617.47866258047,
          -630.55104386825,
          38.146921249977
        ],
        "ImageType": [
          "ORIGINAL",
          "PRIMARY",
          "M",
          "ND",
          "MOSAIC"
        ],
        "ImagedNucleus": "1H",
        "ImagingFrequency": 123.218737,
        "InPlanePhaseEncodingDirection": "COL",
        "MRAcquisitionType": "2D",
        "MagneticFieldStrength": 3.0,
        "Manufacturer": "SIEMENS",
        "ManufacturerModelName": "TrioTim",
        "Modality": "MR",
        "NumberOfAverages": 1.0,
        "NumberOfPhaseEncodingSteps": 68,
        "PercentPhaseFieldOfView": 100.0,
        "PercentSampling": 100.0,
        "PerformedProcedureStepStartTime": "131936.968000",
        "PhotometricInterpretation": "MONOCHROME2",
        "PixelBandwidth": 2451.0,
        "PixelRepresentation": 0,
        "PixelSpacing": [
          3.0,
          3.0
        ],
        "ProtocolName": "ep2d_bold_RestEPI_4",
        "RepetitionTime": 2000.0,
        "Rows": 408,
        "SAR": 0.18393443367599,
        "SamplesPerPixel": 1,
        "ScanOptions": "FS",
        "ScanningSequence": "EP",
        "SequenceName": "*epfid2d1_68",
        "SequenceVariant": "SK",
        "SeriesDescription": "ep2d_bold_RestEPI_4",
        "SeriesNumber": 13,
        "SeriesTime": "145458.187000",
        "SliceLocation": -42.490477120767,
        "SliceThickness": 2.5,
        "SmallestImagePixelValue": 0,
        "SoftwareVersions": "syngo MR B19",
        "SpacingBetweenSlices": 2.9999999955643,
        "SpecificCharacterSet": "ISO_IR 100",
        "StudyID": "1",
        "StudyTime": "131936.937000",
        "TransmitCoilName": "Body",
        "VariableFlipAngleFlag": "N",
        "WindowCenterWidthExplanation": "Algo1",
        "dBdt": 0.0
      },
      "slices": {}
    },
    "modality": "bold",
    "run_id": 4,
    "subject_id": "189",
    "task_id": "rest",
    "time": {
      "samples": {
        "AcquisitionNumber": [
          1,
          2,
          3,
          4,
          5,
          6,
          7,
          8,
          9,
          10,
          11,
          12,
          13,
          14,
          15,
          16,
          17,
          18,
          19,
          20,
          21,
          22,
          23,
          24,
          25,
          26,
          27,
          28,
          29,
          30,
          31,
          32,
          33,
          34,
          35,
          36,
          37,
          38,
          39,
          40,
          41,
          42,
          43,
          44,
          45,
          46,
          47,
          48,
          49,
          50,
          51,
          52,
          53,
          54,
          55,
          56,
          57,
          58,
          59,
          60,
          61,
          62,
          63,
          64,
          65,
          66,
          67,
          68,
          69,
          70,
          71,
          72,
          73,
          74,
          75,
          76,
          77,
          78,
          79,
          80,
          81,
          82,
          83,
          84,
          85,
          86,
          87,
          88,
          89,
          90,
          91,
          92,
          93,
          94,
          95,
          96,
          97,
          98,
          99,
          100,
          101,
          102,
          103,
          104,
          105,
          106,
          107,
          108,
          109,
          110,
          111,
          112,
          113,
          114,
          115,
          116,
          117,
          118,
          119,
          120,
          121,
          122,
          123,
          124,
          125,
          126,
          127,
          128,
          129,
          130,
          131,
          132,
          133,
          134,
          135,
          136,
          137,
          138,
          139,
          140,
          141,
          142,
          143,
          144,
          145,
          146,
          147,
          148,
          149,
          150,
          151,
          152,
          153,
          154,
          155,
          156,
          157,
          158,
          159,
          160,
          161,
          162,
          163,
          164,
          165,
          166,
          167,
          168,
          169,
          170,
          171,
          172,
          173,
          174,
          175,
          176,
          177,
          178,
          179,
          180,
          181,
          182,
          183,
          184,
          185,
          186,
          187,
          188,
          189,
          190,
          191,
          192,
          193,
          194,
          195,
          196,
          197,
          198,
          199,
          200,
          201,
          202,
          203,
          204,
          205,
          206,
          207,
          208,
          209,
          210,
          211,
          212,
          213,
          214,
          215,
          216,
          217,
          218,
          219,
          220,
          221,
          222,
          223,
          224,
          225,
          226,
          227,
          228,
          229,
          230,
          231,
          232,
          233,
          234,
          235,
          236,
          237,
          238,
          239,
          240
        ],
        "AcquisitionTime": [
          "145447.475000",
          "145449.485000",
          "145451.492500",
          "145453.500000",
          "145455.507500",
          "145457.515000",
          "145459.525000",
          "145501.532500",
          "145503.540000",
          "145505.547500",
          "145507.557500",
          "145509.565000",
          "145511.572500",
          "145513.580000",
          "145515.587500",
          "145517.597500",
          "145519.605000",
          "145521.612500",
          "145523.620000",
          "145525.627500",
          "145527.637500",
          "145529.645000",
          "145531.652500",
          "145533.660000",
          "145535.670000",
          "145537.677500",
          "145539.685000",
          "145541.692500",
          "145543.700000",
          "145545.710000",
          "145547.717500",
          "145549.725000",
          "145551.732500",
          "145553.740000",
          "145555.750000",
          "145557.757500",
          "145559.765000",
          "145601.772500",
          "145603.782500",
          "145605.790000",
          "145607.797500",
          "145609.805000",
          "145611.812500",
          "145613.822500",
          "145615.830000",
          "145617.837500",
          "145619.845000",
          "145621.852500",
          "145623.862500",
          "145625.870000",
          "145627.877500",
          "145629.885000",
          "145631.892500",
          "145633.902500",
          "145635.910000",
          "145637.917500",
          "145639.925000",
          "145641.935000",
          "145643.942500",
          "145645.950000",
          "145647.957500",
          "145649.965000",
          "145651.975000",
          "145653.982500",
          "145655.990000",
          "145657.997500",
          "145700.005000",
          "145702.015000",
          "145704.022500",
          "145706.030000",
          "145708.037500",
          "145710.047500",
          "145712.055000",
          "145714.062500",
          "145716.070000",
          "145718.077500",
          "145720.087500",
          "145722.095000",
          "145724.102500",
          "145726.110000",
          "145728.117500",
          "145730.127500",
          "145732.135000",
          "145734.142500",
          "145736.150000",
          "145738.160000",
          "145740.167500",
          "145742.175000",
          "145744.182500",
          "145746.190000",
          "145748.200000",
          "145750.207500",
          "145752.215000",
          "145754.222500",
          "145756.230000",
          "145758.240000",
          "145800.247500",
          "145802.255000",
          "145804.262500",
          "145806.270000",
          "145808.280000",
          "145810.287500",
          "145812.295000",
          "145814.302500",
          "145816.312500",
          "145818.320000",
          "145820.327500",
          "145822.335000",
          "145824.342500",
          "145826.352500",
          "145828.360000",
          "145830.367500",
          "145832.375000",
          "145834.382500",
          "145836.392500",
          "145838.400000",
          "145840.407500",
          "145842.415000",
          "145844.425000",
          "145846.432500",
          "145848.440000",
          "145850.447500",
          "145852.455000",
          "145854.465000",
          "145856.472500",
          "145858.480000",
          "145900.487500",
          "145902.495000",
          "145904.505000",
          "145906.512500",
          "145908.520000",
          "145910.527500",
          "145912.537500",
          "145914.545000",
          "145916.552500",
          "145918.560000",
          "145920.567500",
          "145922.577500",
          "145924.585000",
          "145926.592500",
          "145928.600000",
          "145930.607500",
          "145932.617500",
          "145934.625000",
          "145936.632500",
          "145938.640000",
          "145940.647500",
          "145942.657500",
          "145944.665000",
          "145946.672500",
          "145948.680000",
          "145950.690000",
          "145952.697500",
          "145954.705000",
          "145956.712500",
          "145958.720000",
          "150000.730000",
          "150002.737500",
          "150004.745000",
          "150006.752500",
          "150008.760000",
          "150010.770000",
          "150012.777500",
          "150014.785000",
          "150016.792500",
          "150018.802500",
          "150020.810000",
          "150022.817500",
          "150024.825000",
          "150026.832500",
          "150028.842500",
          "150030.850000",
          "150032.857500",
          "150034.865000",
          "150036.872500",
          "150038.882500",
          "150040.890000",
          "150042.897500",
          "150044.905000",
          "150046.915000",
          "150048.922500",
          "150050.930000",
          "150052.937500",
          "150054.945000",
          "150056.955000",
          "150058.962500",
          "150100.970000",
          "150102.977500",
          "150104.985000",
          "150106.995000",
          "150109.002500",
          "150111.010000",
          "150113.017500",
          "150115.025000",
          "150117.035000",
          "150119.042500",
          "150121.050000",
          "150123.057500",
          "150125.067500",
          "150127.075000",
          "150129.082500",
          "150131.090000",
          "150133.097500",
          "150135.107500",
          "150137.115000",
          "150139.122500",
          "150141.130000",
          "150143.137500",
          "150145.147500",
          "150147.155000",
          "150149.162500",
          "150151.170000",
          "150153.180000",
          "150155.187500",
          "150157.195000",
          "150159.202500",
          "150201.210000",
          "150203.220000",
          "150205.227500",
          "150207.235000",
          "150209.242500",
          "150211.250000",
          "150213.260000",
          "150215.267500",
          "150217.275000",
          "150219.282500",
          "150221.292500",
          "150223.300000",
          "150225.307500",
          "150227.315000",
          "150229.322500",
          "150231.332500",
          "150233.340000",
          "150235.347500",
          "150237.355000",
          "150239.362500",
          "150241.372500",
          "150243.380000",
          "150245.387500",
          "150247.395000"
        ],
        "ContentTime": [
          "145458.187000",
          "145458.187000",
          "145458.203000",
          "145458.203000",
          "145458.203000",
          "145538.187000",
          "145538.187000",
          "145538.187000",
          "145538.187000",
          "145538.203000",
          "145538.203000",
          "145538.203000",
          "145538.203000",
          "145538.203000",
          "145538.203000",
          "145538.203000",
          "145538.203000",
          "145538.218000",
          "145538.218000",
          "145538.218000",
          "145538.218000",
          "145538.218000",
          "145538.218000",
          "145538.218000",
          "145538.218000",
          "145618.187000",
          "145618.187000",
          "145618.187000",
          "145618.187000",
          "145618.187000",
          "145618.203000",
          "145618.203000",
          "145618.203000",
          "145618.203000",
          "145618.203000",
          "145618.203000",
          "145618.203000",
          "145618.218000",
          "145618.218000",
          "145618.218000",
          "145618.218000",
          "145618.218000",
          "145618.218000",
          "145618.218000",
          "145618.218000",
          "145658.187000",
          "145658.187000",
          "145658.187000",
          "145658.187000",
          "145658.203000",
          "145658.203000",
          "145658.203000",
          "145658.203000",
          "145658.203000",
          "145658.203000",
          "145658.203000",
          "145658.203000",
          "145658.218000",
          "145658.218000",
          "145658.218000",
          "145658.218000",
          "145658.218000",
          "145658.218000",
          "145658.218000",
          "145658.218000",
          "145738.187000",
          "145738.187000",
          "145738.187000",
          "145738.187000",
          "145738.187000",
          "145738.203000",
          "145738.203000",
          "145738.203000",
          "145738.203000",
          "145738.203000",
          "145738.203000",
          "145738.203000",
          "145738.218000",
          "145738.218000",
          "145738.218000",
          "145738.218000",
          "145738.218000",
          "145738.218000",
          "145738.218000",
          "145738.218000",
          "145818.187000",
          "145818.187000",
          "145818.187000",
          "145818.187000",
          "145818.203000",
          "145818.203000",
          "145818.203000",
          "145818.203000",
          "145818.203000",
          "145818.203000",
          "145818.203000",
          "145818.203000",
          "145818.218000",
          "145818.218000",
          "145818.218000",
          "145818.218000",
          "145818.218000",
          "145818.218000",
          "145818.218000",
          "145818.218000",
          "145858.187000",
          "145858.187000",
          "145858.187000",
          "145858.187000",
          "145858.203000",
          "145858.203000",
          "145858.203000",
          "145858.203000",
          "145858.203000",
          "145858.203000",
          "145858.203000",
          "145858.203000",
          "145858.218000",
          "145858.218000",
          "145858.218000",
          "145858.218000",
          "145858.218000",
          "145858.218000",
          "145858.218000",
          "145858.234000",
          "145938.187000",
          "145938.187000",
          "145938.187000",
          "145938.187000",
          "145938.203000",
          "145938.203000",
          "145938.203000",
          "145938.203000",
          "145938.203000",
          "145938.203000",
          "145938.203000",
          "145938.203000",
          "145938.218000",
          "145938.218000",
          "145938.218000",
          "145938.218000",
          "145938.218000",
          "145938.218000",
          "145938.218000",
          "145938.218000",
          "150018.187000",
          "150018.187000",
          "150018.187000",
          "150018.187000",
          "150018.203000",
          "150018.203000",
          "150018.203000",
          "150018.203000",
          "150018.203000",
          "150018.218000",
          "150018.218000",
          "150018.218000",
          "150018.218000",
          "150018.234000",
          "150018.234000",
          "150018.234000",
          "150018.234000",
          "150018.234000",
          "150018.234000",
          "150018.234000",
          "150058.187000",
          "150058.187000",
          "150058.187000",
          "150058.187000",
          "150058.203000",
          "150058.203000",
          "150058.203000",
          "150058.203000",
          "150058.203000",
          "150058.203000",
          "150058.203000",
          "150058.203000",
          "150058.218000",
          "150058.218000",
          "150058.218000",
          "150058.218000",
          "150058.218000",
          "150058.218000",
          "150058.218000",
          "150058.234000",
          "150138.187000",
          "150138.187000",
          "150138.187000",
          "150138.187000",
          "150138.203000",
          "150138.203000",
          "150138.203000",
          "150138.203000",
          "150138.203000",
          "150138.203000",
          "150138.203000",
          "150138.203000",
          "150138.218000",
          "150138.218000",
          "150138.218000",
          "150138.218000",
          "150138.218000",
          "150138.218000",
          "150138.218000",
          "150138.218000",
          "150218.187000",
          "150218.187000",
          "150218.187000",
          "150218.187000",
          "150218.187000",
          "150218.203000",
          "150218.203000",
          "150218.203000",
          "150218.203000",
          "150218.203000",
          "150218.203000",
          "150218.203000",
          "150218.218000",
          "150218.218000",
          "150218.218000",
          "150218.218000",
          "150218.218000",
          "150218.218000",
          "150218.218000",
          "150218.218000",
          "150246.328000",
          "150246.328000",
          "150246.328000",
          "150246.343000",
          "150246.343000",
          "150246.343000",
          "150246.343000",
          "150246.343000",
          "150246.343000",
          "150246.343000",
          "150246.343000",
          "150246.359000",
          "150246.359000",
          "150246.359000",
          "150246.359000"
        ],
        "InstanceCreationTime": [
          "145458.187000",
          "145458.187000",
          "145458.203000",
          "145458.203000",
          "145458.203000",
          "145538.187000",
          "145538.187000",
          "145538.187000",
          "145538.187000",
          "145538.203000",
          "145538.203000",
          "145538.203000",
          "145538.203000",
          "145538.203000",
          "145538.203000",
          "145538.203000",
          "145538.203000",
          "145538.218000",
          "145538.218000",
          "145538.218000",
          "145538.218000",
          "145538.218000",
          "145538.218000",
          "145538.218000",
          "145538.218000",
          "145618.187000",
          "145618.187000",
          "145618.187000",
          "145618.187000",
          "145618.187000",
          "145618.203000",
          "145618.203000",
          "145618.203000",
          "145618.203000",
          "145618.203000",
          "145618.203000",
          "145618.203000",
          "145618.218000",
          "145618.218000",
          "145618.218000",
          "145618.218000",
          "145618.218000",
          "145618.218000",
          "145618.218000",
          "145618.218000",
          "145658.187000",
          "145658.187000",
          "145658.187000",
          "145658.187000",
          "145658.203000",
          "145658.203000",
          "145658.203000",
          "145658.203000",
          "145658.203000",
          "145658.203000",
          "145658.203000",
          "145658.203000",
          "145658.218000",
          "145658.218000",
          "145658.218000",
          "145658.218000",
          "145658.218000",
          "145658.218000",
          "145658.218000",
          "145658.218000",
          "145738.187000",
          "145738.187000",
          "145738.187000",
          "145738.187000",
          "145738.187000",
          "145738.203000",
          "145738.203000",
          "145738.203000",
          "145738.203000",
          "145738.203000",
          "145738.203000",
          "145738.203000",
          "145738.218000",
          "145738.218000",
          "145738.218000",
          "145738.218000",
          "145738.218000",
          "145738.218000",
          "145738.218000",
          "145738.218000",
          "145818.187000",
          "145818.187000",
          "145818.187000",
          "145818.187000",
          "145818.203000",
          "145818.203000",
          "145818.203000",
          "145818.203000",
          "145818.203000",
          "145818.203000",
          "145818.203000",
          "145818.203000",
          "145818.218000",
          "145818.218000",
          "145818.218000",
          "145818.218000",
          "145818.218000",
          "145818.218000",
          "145818.218000",
          "145818.218000",
          "145858.187000",
          "145858.187000",
          "145858.187000",
          "145858.187000",
          "145858.203000",
          "145858.203000",
          "145858.203000",
          "145858.203000",
          "145858.203000",
          "145858.203000",
          "145858.203000",
          "145858.203000",
          "145858.218000",
          "145858.218000",
          "145858.218000",
          "145858.218000",
          "145858.218000",
          "145858.218000",
          "145858.218000",
          "145858.234000",
          "145938.187000",
          "145938.187000",
          "145938.187000",
          "145938.187000",
          "145938.203000",
          "145938.203000",
          "145938.203000",
          "145938.203000",
          "145938.203000",
          "145938.203000",
          "145938.203000",
          "145938.203000",
          "145938.218000",
          "145938.218000",
          "145938.218000",
          "145938.218000",
          "145938.218000",
          "145938.218000",
          "145938.218000",
          "145938.218000",
          "150018.187000",
          "150018.187000",
          "150018.187000",
          "150018.187000",
          "150018.203000",
          "150018.203000",
          "150018.203000",
          "150018.203000",
          "150018.203000",
          "150018.218000",
          "150018.218000",
          "150018.218000",
          "150018.218000",
          "150018.234000",
          "150018.234000",
          "150018.234000",
          "150018.234000",
          "150018.234000",
          "150018.234000",
          "150018.234000",
          "150058.187000",
          "150058.187000",
          "150058.187000",
          "150058.187000",
          "150058.203000",
          "150058.203000",
          "150058.203000",
          "150058.203000",
          "150058.203000",
          "150058.203000",
          "150058.203000",
          "150058.203000",
          "150058.218000",
          "150058.218000",
          "150058.218000",
          "150058.218000",
          "150058.218000",
          "150058.218000",
          "150058.218000",
          "150058.234000",
          "150138.187000",
          "150138.187000",
          "150138.187000",
          "150138.187000",
          "150138.203000",
          "150138.203000",
          "150138.203000",
          "150138.203000",
          "150138.203000",
          "150138.203000",
          "150138.203000",
          "150138.203000",
          "150138.218000",
          "150138.218000",
          "150138.218000",
          "150138.218000",
          "150138.218000",
          "150138.218000",
          "150138.218000",
          "150138.218000",
          "150218.187000",
          "150218.187000",
          "150218.187000",
          "150218.187000",
          "150218.187000",
          "150218.203000",
          "150218.203000",
          "150218.203000",
          "150218.203000",
          "150218.203000",
          "150218.203000",
          "150218.203000",
          "150218.218000",
          "150218.218000",
          "150218.218000",
          "150218.218000",
          "150218.218000",
          "150218.218000",
          "150218.218000",
          "150218.218000",
          "150246.328000",
          "150246.328000",
          "150246.328000",
          "150246.343000",
          "150246.343000",
          "150246.343000",
          "150246.343000",
          "150246.343000",
          "150246.343000",
          "150246.343000",
          "150246.343000",
          "150246.359000",
          "150246.359000",
          "150246.359000",
          "150246.359000"
        ],
        "InstanceNumber": [
          1,
          2,
          3,
          4,
          5,
          6,
          7,
          8,
          9,
          10,
          11,
          12,
          13,
          14,
          15,
          16,
          17,
          18,
          19,
          20,
          21,
          22,
          23,
          24,
          25,
          26,
          27,
          28,
          29,
          30,
          31,
          32,
          33,
          34,
          35,
          36,
          37,
          38,
          39,
          40,
          41,
          42,
          43,
          44,
          45,
          46,
