{
  "aor": 0.0008233463035019456,
  "aqi": 0.009767353151750974,
  "bids_meta": {
    "AcquisitionMatrixPE": 68,
    "AcquisitionNumber": 1,
    "AcquisitionTime": "14:25:27.382500",
    "BandwidthPerPixelPhaseEncode": 31.289,
    "BaseResolution": 68,
    "CogAtlasID": "TODO",
    "CoilString": "C:HEA;HEP",
    "ConversionSoftware": "dcm2niix",
    "ConversionSoftwareVersion": "v1.0.20190902",
    "DerivedVendorReportedEchoSpacing": 0.000470002,
    "DeviceSerialNumber": "35450",
    "DwellTime": 3e-06,
    "EchoTime": 0.023,
    "EffectiveEchoSpacing": 0.000470002,
    "FlipAngle": 76,
    "ImageOrientationPatientDICOM": [
      0.998027,
      -0.00416133,
      -0.0626525,
      -4.56857e-08,
      0.997801,
      -0.0662739
    ],
    "ImageType": [
      "ORIGINAL",
      "PRIMARY",
      "M",
      "ND",
      "MOSAIC"
    ],
    "ImagingFrequency": 123.219,
    "InPlanePhaseEncodingDirectionDICOM": "COL",
    "InstitutionAddress": "Univeristy_Ave._197_Newark_North_East_US_07102-1814",
    "InstitutionName": "RUBIC",
    "InstitutionalDepartmentName": "Department",
    "MRAcquisitionType": "2D",
    "MagneticFieldStrength": 3,
    "Manufacturer": "Siemens",
    "ManufacturersModelName": "TrioTim",
    "Modality": "MR",
    "PartialFourier": 1,
    "PatientPosition": "HFS",
    "PercentPhaseFOV": 100,
    "PhaseEncodingDirection": "j-",
    "PhaseEncodingSteps": 68,
    "PhaseResolution": 1,
    "PixelBandwidth": 2451,
    "ProcedureStepDescription": "Krekelberg_David",
    "ProtocolName": "ep2d_bold_CardGameEPI_2",
    "PulseSequenceDetails": "%SiemensSeq%_ep2d_bold",
    "ReceiveCoilName": "HeadMatrix",
    "ReconMatrixPE": 68,
    "RepetitionTime": 2,
    "SAR": 0.183974,
    "ScanOptions": "FS",
    "ScanningSequence": "EP",
    "SequenceName": "_epfid2d1_68",
    "SequenceVariant": "SK",
    "SeriesDescription": "ep2d_bold_CardGameEPI_2",
    "SeriesNumber": 10,
    "ShimSetting": [
      1898,
      -590,
      -7668,
      882,
      -62,
      200,
      -424,
      -23
    ],
    "SliceThickness": 2.5,
    "SliceTiming": [
      1.95,
      1.895,
      1.84,
      1.7825,
      1.7275,
      1.6725,
      1.615,
      1.56,
      1.505,
      1.45,
      1.3925,
      1.3375,
      1.2825,
      1.225,
      1.17,
      1.115,
      1.0575,
      1.0025,
      0.9475,
      0.89,
      0.835,
      0.78,
      0.725,
      0.6675,
      0.6125,
      0.5575,
      0.5,
      0.445,
      0.39,
      0.3325,
      0.2775,
      0.2225,
      0.165,
      0.11,
      0.055,
      0
    ],
    "SoftwareVersions": "syngo_MR_B19",
    "SpacingBetweenSlices": 3,
    "StationName": "MRC35450",
    "TaskName": "cardgame",
    "TotalReadoutTime": 0.0314901,
    "TxRefAmp": 326.752,
    "dataset": "<unset>",
    "dcmmeta_affine": [
      [
        -2.994080066680908,
        -1.3705708568068076e-07,
        -0.18837155401706696,
        108.48506164550781
      ],
      [
        0.012483981437981129,
        2.9934043884277344,
        -0.19842937588691711,
        -76.7635269165039
      ],
      [
        -0.18795742094516754,
        0.19882169365882874,
        2.987497568130493,
        -40.92658233642578
      ],
      [
        0.0,
        0.0,
        0.0,
        1.0
      ]
    ],
    "dcmmeta_reorient_transform": [
      [
        0.0,
        -1.0,
        0.0,
        67.0
      ],
      [
        1.0,
        0.0,
        0.0,
        0.0
      ],
      [
        0.0,
        0.0,
        1.0,
        0.0
      ],
      [
        0.0,
        0.0,
        0.0,
        1.0
      ]
    ],
    "dcmmeta_shape": [
      68,
      68,
      36,
      258
    ],
    "dcmmeta_slice_dim": 2,
    "dcmmeta_version": 0.6,
    "global": {
      "const": {
        "AcquisitionMatrix": [
          68,
          0,
          0,
          68
        ],
        "AngioFlag": "N",
        "BitsAllocated": 16,
        "BitsStored": 12,
        "Columns": 408,
        "EchoNumbers": 1,
        "EchoTime": 23.0,
        "EchoTrainLength": 1,
        "FlipAngle": 76.0,
        "HighBit": 11,
        "ImageOrientationPatient": [
          0.99802672849261,
          -0.0041613270076,
          -0.062652474587,
          -4.5685696e-08,
          0.99780146836257,
          -0.0662738993383
        ],
        "ImagePositionPatient": [
          -617.47866258047,
          -630.55104386825,
          38.146921249977
        ],
        "ImageType": [
          "ORIGINAL",
          "PRIMARY",
          "M",
          "ND",
          "MOSAIC"
        ],
        "ImagedNucleus": "1H",
        "ImagingFrequency": 123.218688,
        "InPlanePhaseEncodingDirection": "COL",
        "MRAcquisitionType": "2D",
        "MagneticFieldStrength": 3.0,
        "Manufacturer": "SIEMENS",
        "ManufacturerModelName": "TrioTim",
        "Modality": "MR",
        "NumberOfAverages": 1.0,
        "NumberOfPhaseEncodingSteps": 68,
        "PercentPhaseFieldOfView": 100.0,
        "PercentSampling": 100.0,
        "PerformedProcedureStepStartTime": "131936.968000",
        "PhotometricInterpretation": "MONOCHROME2",
        "PixelBandwidth": 2451.0,
        "PixelRepresentation": 0,
        "PixelSpacing": [
          3.0,
          3.0
        ],
        "ProtocolName": "ep2d_bold_CardGameEPI_2",
        "RepetitionTime": 2000.0,
        "Rows": 408,
        "SAR": 0.18397378479846,
        "SamplesPerPixel": 1,
        "ScanOptions": "FS",
        "ScanningSequence": "EP",
        "SequenceName": "*epfid2d1_68",
        "SequenceVariant": "SK",
        "SeriesDescription": "ep2d_bold_CardGameEPI_2",
        "SeriesNumber": 10,
        "SeriesTime": "142538.187000",
        "SliceLocation": -42.490477120767,
        "SliceThickness": 2.5,
        "SmallestImagePixelValue": 0,
        "SoftwareVersions": "syngo MR B19",
        "SpacingBetweenSlices": 2.9999999955643,
        "SpecificCharacterSet": "ISO_IR 100",
        "StudyID": "1",
        "StudyTime": "131936.937000",
        "TransmitCoilName": "Body",
        "VariableFlipAngleFlag": "N",
        "WindowCenterWidthExplanation": "Algo1",
        "dBdt": 0.0
      },
      "slices": {}
    },
    "modality": "bold",
    "run_id": 2,
    "subject_id": "189",
    "task_id": "cardgame",
    "time": {
      "samples": {
        "AcquisitionNumber": [
          1,
          2,
          3,
          4,
          5,
          6,
          7,
          8,
          9,
          10,
          11,
          12,
          13,
          14,
          15,
          16,
          17,
          18,
          19,
          20,
          21,
          22,
          23,
          24,
          25,
          26,
          27,
          28,
          29,
          30,
          31,
          32,
          33,
          34,
          35,
          36,
          37,
          38,
          39,
          40,
          41,
          42,
          43,
          44,
          45,
          46,
          47,
          48,
          49,
          50,
          51,
          52,
          53,
          54,
          55,
          56,
          57,
          58,
          59,
          60,
          61,
          62,
          63,
          64,
          65,
          66,
          67,
          68,
          69,
          70,
          71,
          72,
          73,
          74,
          75,
          76,
          77,
          78,
          79,
          80,
          81,
          82,
          83,
          84,
          85,
          86,
          87,
          88,
          89,
          90,
          91,
          92,
          93,
          94,
          95,
          96,
          97,
          98,
          99,
          100,
          101,
          102,
          103,
          104,
          105,
          106,
          107,
          108,
          109,
          110,
          111,
          112,
          113,
          114,
          115,
          116,
          117,
          118,
          119,
          120,
          121,
          122,
          123,
          124,
          125,
          126,
          127,
          128,
          129,
          130,
          131,
          132,
          133,
          134,
          135,
          136,
          137,
          138,
          139,
          140,
          141,
          142,
          143,
          144,
          145,
          146,
          147,
          148,
          149,
          150,
          151,
          152,
          153,
          154,
          155,
          156,
          157,
          158,
          159,
          160,
          161,
          162,
          163,
          164,
          165,
          166,
          167,
          168,
          169,
          170,
          171,
          172,
          173,
          174,
          175,
          176,
          177,
          178,
          179,
          180,
          181,
          182,
          183,
          184,
          185,
          186,
          187,
          188,
          189,
          190,
          191,
          192,
          193,
          194,
          195,
          196,
          197,
          198,
          199,
          200,
          201,
          202,
          203,
          204,
          205,
          206,
          207,
          208,
          209,
          210,
          211,
          212,
          213,
          214,
          215,
          216,
          217,
          218,
          219,
          220,
          221,
          222,
          223,
          224,
          225,
          226,
          227,
          228,
          229,
          230,
          231,
          232,
          233,
          234,
          235,
          236,
          237,
          238,
          239,
          240,
          241,
          242,
          243,
          244,
          245,
          246,
          247,
          248,
          249,
          250,
          251,
          252,
          253,
          254,
          255,
          256,
          257,
          258
        ],
        "AcquisitionTime": [
          "142527.382500",
          "142529.390000",
          "142531.400000",
          "142533.407500",
          "142535.415000",
          "142537.422500",
          "142539.432500",
          "142541.440000",
          "142543.447500",
          "142545.455000",
          "142547.462500",
          "142549.472500",
          "142551.480000",
          "142553.487500",
          "142555.495000",
          "142557.502500",
          "142559.512500",
          "142601.520000",
          "142603.527500",
          "142605.535000",
          "142607.545000",
          "142609.552500",
          "142611.560000",
          "142613.567500",
          "142615.575000",
          "142617.585000",
          "142619.592500",
          "142621.600000",
          "142623.607500",
          "142625.615000",
          "142627.625000",
          "142629.632500",
          "142631.640000",
          "142633.647500",
          "142635.655000",
          "142637.665000",
          "142639.672500",
          "142641.680000",
          "142643.687500",
          "142645.697500",
          "142647.705000",
          "142649.712500",
          "142651.720000",
          "142653.727500",
          "142655.737500",
          "142657.745000",
          "142659.752500",
          "142701.760000",
          "142703.767500",
          "142705.777500",
          "142707.785000",
          "142709.792500",
          "142711.800000",
          "142713.810000",
          "142715.817500",
          "142717.825000",
          "142719.832500",
          "142721.840000",
          "142723.850000",
          "142725.857500",
          "142727.865000",
          "142729.872500",
          "142731.880000",
          "142733.890000",
          "142735.897500",
          "142737.905000",
          "142739.912500",
          "142741.922500",
          "142743.930000",
          "142745.937500",
          "142747.945000",
          "142749.952500",
          "142751.962500",
          "142753.970000",
          "142755.977500",
          "142757.985000",
          "142759.992500",
          "142802.002500",
          "142804.010000",
          "142806.017500",
          "142808.025000",
          "142810.032500",
          "142812.042500",
          "142814.050000",
          "142816.057500",
          "142818.065000",
          "142820.075000",
          "142822.082500",
          "142824.090000",
          "142826.097500",
          "142828.105000",
          "142830.115000",
          "142832.122500",
          "142834.130000",
          "142836.137500",
          "142838.145000",
          "142840.155000",
          "142842.162500",
          "142844.170000",
          "142846.177500",
          "142848.187500",
          "142850.195000",
          "142852.202500",
          "142854.210000",
          "142856.217500",
          "142858.227500",
          "142900.235000",
          "142902.242500",
          "142904.250000",
          "142906.257500",
          "142908.267500",
          "142910.275000",
          "142912.282500",
          "142914.290000",
          "142916.300000",
          "142918.307500",
          "142920.315000",
          "142922.322500",
          "142924.330000",
          "142926.340000",
          "142928.347500",
          "142930.355000",
          "142932.362500",
          "142934.370000",
          "142936.380000",
          "142938.387500",
          "142940.395000",
          "142942.402500",
          "142944.410000",
          "142946.420000",
          "142948.427500",
          "142950.435000",
          "142952.442500",
          "142954.452500",
          "142956.460000",
          "142958.467500",
          "143000.475000",
          "143002.482500",
          "143004.492500",
          "143006.500000",
          "143008.507500",
          "143010.515000",
          "143012.522500",
          "143014.532500",
          "143016.540000",
          "143018.547500",
          "143020.555000",
          "143022.565000",
          "143024.572500",
          "143026.580000",
          "143028.587500",
          "143030.595000",
          "143032.605000",
          "143034.612500",
          "143036.620000",
          "143038.627500",
          "143040.635000",
          "143042.645000",
          "143044.652500",
          "143046.660000",
          "143048.667500",
          "143050.677500",
          "143052.685000",
          "143054.692500",
          "143056.700000",
          "143058.707500",
          "143100.717500",
          "143102.725000",
          "143104.732500",
          "143106.740000",
          "143108.747500",
          "143110.757500",
          "143112.765000",
          "143114.772500",
          "143116.780000",
          "143118.787500",
          "143120.797500",
          "143122.805000",
          "143124.812500",
          "143126.820000",
          "143128.830000",
          "143130.837500",
          "143132.845000",
          "143134.852500",
          "143136.860000",
          "143138.870000",
          "143140.877500",
          "143142.885000",
          "143144.892500",
          "143146.900000",
          "143148.910000",
          "143150.917500",
          "143152.925000",
          "143154.932500",
          "143156.942500",
          "143158.950000",
          "143200.957500",
          "143202.965000",
          "143204.972500",
          "143206.982500",
          "143208.990000",
          "143210.997500",
          "143213.005000",
          "143215.012500",
          "143217.022500",
          "143219.030000",
          "143221.037500",
          "143223.045000",
          "143225.055000",
          "143227.062500",
          "143229.070000",
          "143231.077500",
          "143233.085000",
          "143235.095000",
          "143237.102500",
          "143239.110000",
          "143241.117500",
          "143243.125000",
          "143245.135000",
          "143247.142500",
          "143249.150000",
          "143251.157500",
          "143253.167500",
          "143255.175000",
          "143257.182500",
          "143259.190000",
          "143301.197500",
          "143303.207500",
          "143305.215000",
          "143307.222500",
          "143309.230000",
          "143311.237500",
          "143313.247500",
          "143315.255000",
          "143317.262500",
          "143319.270000",
          "143321.277500",
          "143323.287500",
          "143325.295000",
          "143327.302500",
          "143329.310000",
          "143331.320000",
          "143333.327500",
          "143335.335000",
          "143337.342500",
          "143339.350000",
          "143341.360000",
          "143343.367500",
          "143345.375000",
          "143347.382500",
          "143349.390000",
          "143351.400000",
          "143353.407500",
          "143355.415000",
          "143357.422500",
          "143359.432500",
          "143401.440000",
          "143403.447500"
        ],
        "ContentTime": [
          "142538.187000",
          "142538.187000",
          "142538.203000",
          "142538.203000",
          "142538.203000",
          "142538.203000",
          "142618.187000",
          "142618.187000",
          "142618.187000",
          "142618.187000",
          "142618.203000",
          "142618.203000",
          "142618.203000",
          "142618.203000",
          "142618.203000",
          "142618.203000",
          "142618.203000",
          "142618.203000",
          "142618.218000",
          "142618.218000",
          "142618.218000",
          "142618.218000",
          "142618.218000",
          "142618.218000",
          "142618.218000",
          "142618.218000",
          "142658.187000",
          "142658.187000",
          "142658.187000",
          "142658.187000",
          "142658.187000",
          "142658.203000",
          "142658.203000",
          "142658.203000",
          "142658.203000",
          "142658.203000",
          "142658.203000",
          "142658.203000",
          "142658.203000",
          "142658.218000",
          "142658.218000",
          "142658.218000",
          "142658.218000",
          "142658.218000",
          "142658.218000",
          "142658.218000",
          "142738.187000",
          "142738.187000",
          "142738.187000",
          "142738.187000",
          "142738.187000",
          "142738.203000",
          "142738.203000",
          "142738.203000",
          "142738.203000",
          "142738.203000",
          "142738.203000",
          "142738.203000",
          "142738.203000",
          "142738.218000",
          "142738.218000",
          "142738.218000",
          "142738.218000",
          "142738.218000",
          "142738.218000",
          "142738.218000",
          "142818.187000",
          "142818.187000",
          "142818.187000",
          "142818.187000",
          "142818.187000",
          "142818.203000",
          "142818.203000",
          "142818.203000",
          "142818.203000",
          "142818.203000",
          "142818.203000",
          "142818.203000",
          "142818.203000",
          "142818.218000",
          "142818.218000",
          "142818.218000",
          "142818.218000",
          "142818.218000",
          "142818.218000",
          "142818.218000",
          "142858.187000",
          "142858.187000",
          "142858.187000",
          "142858.187000",
          "142858.187000",
          "142858.203000",
          "142858.203000",
          "142858.203000",
          "142858.203000",
          "142858.203000",
          "142858.203000",
          "142858.203000",
          "142858.218000",
          "142858.218000",
          "142858.218000",
          "142858.218000",
          "142858.218000",
          "142858.218000",
          "142858.218000",
          "142858.218000",
          "142938.187000",
          "142938.187000",
          "142938.187000",
          "142938.187000",
          "142938.187000",
          "142938.203000",
          "142938.203000",
          "142938.203000",
          "142938.203000",
          "142938.203000",
          "142938.203000",
          "142938.203000",
          "142938.203000",
          "142938.218000",
          "142938.218000",
          "142938.218000",
          "142938.218000",
          "142938.218000",
          "142938.218000",
          "142938.218000",
          "143018.187000",
          "143018.187000",
          "143018.187000",
          "143018.187000",
          "143018.187000",
          "143018.203000",
          "143018.203000",
          "143018.203000",
          "143018.203000",
          "143018.203000",
          "143018.203000",
          "143018.203000",
          "143018.218000",
          "143018.218000",
          "143018.218000",
          "143018.218000",
          "143018.218000",
          "143018.218000",
          "143018.218000",
          "143018.218000",
          "143058.187000",
          "143058.187000",
          "143058.187000",
          "143058.187000",
          "143058.187000",
          "143058.203000",
          "143058.203000",
          "143058.203000",
          "143058.203000",
          "143058.203000",
          "143058.203000",
          "143058.203000",
          "143058.218000",
          "143058.218000",
          "143058.218000",
          "143058.218000",
          "143058.218000",
          "143058.218000",
          "143058.218000",
          "143058.218000",
          "143138.187000",
          "143138.187000",
          "143138.187000",
          "143138.187000",
          "143138.187000",
          "143138.203000",
          "143138.203000",
          "143138.203000",
          "143138.203000",
          "143138.203000",
          "143138.203000",
          "143138.203000",
          "143138.218000",
          "143138.218000",
          "143138.218000",
          "143138.218000",
          "143138.218000",
          "143138.218000",
          "143138.218000",
          "143138.218000",
          "143218.187000",
          "143218.187000",
          "143218.187000",
          "143218.187000",
          "143218.187000",
          "143218.203000",
          "143218.203000",
          "143218.203000",
          "143218.203000",
          "143218.203000",
          "143218.203000",
          "143218.203000",
          "143218.218000",
          "143218.218000",
          "143218.218000",
          "143218.218000",
          "143218.218000",
          "143218.218000",
          "143218.218000",
          "143218.218000",
          "143258.187000",
          "143258.187000",
          "143258.187000",
          "143258.187000",
          "143258.187000",
          "143258.203000",
          "143258.203000",
          "143258.203000",
          "143258.203000",
          "143258.203000",
          "143258.203000",
          "143258.203000",
          "143258.203000",
          "143258.218000",
          "143258.218000",
          "143258.218000",
          "143258.218000",
          "143258.218000",
          "143258.218000",
          "143258.218000",
          "143338.187000",
          "143338.187000",
          "143338.187000",
          "143338.187000",
          "143338.187000",
          "143338.203000",
          "143338.203000",
          "143338.203000",
          "143338.203000",
          "143338.203000",
          "143338.203000",
          "143338.203000",
          "143338.203000",
          "143338.218000",
          "143338.218000",
          "143338.218000",
          "143338.218000",
          "143338.218000",
          "143338.218000",
          "143338.218000",
          "143402.125000",
          "143402.125000",
          "143402.125000",
          "143402.125000",
          "143402.125000",
          "143402.140000",
          "143402.140000",
          "143402.140000",
          "143402.187000",
          "143402.187000",
          "143402.203000",
          "143402.203000"
        ],
        "InstanceCreationTime": [
          "142538.187000",
          "142538.187000",
          "142538.203000",
          "142538.203000",
          "142538.203000",
          "142538.203000",
          "142618.187000",
          "142618.187000",
          "142618.187000",
          "142618.187000",
          "142618.203000",
          "142618.203000",
          "142618.203000",
          "142618.203000",
          "142618.203000",
          "142618.203000",
          "142618.203000",
          "142618.203000",
          "142618.218000",
          "142618.218000",
          "142618.218000",
          "142618.218000",
          "142618.218000",
          "142618.218000",
          "142618.218000",
          "142618.218000",
          "142658.187000",
          "142658.187000",
          "142658.187000",
          "142658.187000",
          "142658.187000",
          "142658.203000",
          "142658.203000",
          "142658.203000",
          "142658.203000",
          "142658.203000",
          "142658.203000",
          "142658.203000",
          "142658.203000",
          "142658.218000",
          "142658.218000",
          "142658.218000",
          "142658.218000",
          "142658.218000",
          "142658.218000",
          "142658.218000",
          "142738.187000",
          "142738.187000",
          "142738.187000",
          "142738.187000",
          "142738.187000",
          "142738.203000",
          "142738.203000",
          "142738.203000",
          "142738.203000",
          "142738.203000",
          "142738.203000",
          "142738.203000",
          "142738.203000",
          "142738.218000",
          "142738.218000",
          "142738.218000",
          "142738.218000",
          "142738.218000",
          "142738.218000",
          "142738.218000",
          "142818.187000",
          "142818.187000",
          "142818.187000",
          "142818.187000",
          "142818.187000",
          "142818.203000",
          "142818.203000",
          "142818.203000",
          "142818.203000",
          "142818.203000",
          "142818.203000",
          "142818.203000",
          "142818.203000",
          "142818.218000",
          "142818.218000",
          "142818.218000",
          "142818.218000",
          "142818.218000",
          "142818.218000",
          "142818.218000",
          "142858.187000",
          "142858.187000",
          "142858.187000",
          "142858.187000",
          "142858.187000",
          "142858.203000",
          "142858.203000",
          "142858.203000",
          "142858.203000",
          "142858.203000",
          "142858.203000",
          "142858.203000",
          "142858.218000",
          "142858.218000",
          "142858.218000",
          "142858.218000",
          "142858.218000",
          "142858.218000",
          "142858.218000",
          "142858.218000",
          "142938.187000",
          "142938.187000",
          "142938.187000",
          "142938.187000",
          "142938.187000",
          "142938.203000",
          "142938.203000",
          "142938.203000",
          "142938.203000",
          "142938.203000",
          "142938.203000",
          "142938.203000",
          "142938.203000",
          "142938.218000",
          "142938.218000",
          "142938.218000",
          "142938.218000",
          "142938.218000",
          "142938.218000",
          "142938.218000",
          "143018.187000",
          "143018.187000",
          "143018.187000",
          "143018.187000",
          "143018.187000",
          "143018.203000",
          "143018.203000",
          "143018.203000",
          "143018.203000",
          "143018.203000",
          "143018.203000",
          "143018.203000",
          "143018.218000",
          "143018.218000",
          "143018.218000",
          "143018.218000",
          "143018.218000",
          "143018.218000",
          "143018.218000",
          "143018.218000",
          "143058.187000",
          "143058.187000",
          "143058.187000",
          "143058.187000",
          "143058.187000",
          "143058.203000",
          "143058.203000",
          "143058.203000",
          "143058.203000",
          "143058.203000",
          "143058.203000",
          "143058.203000",
          "143058.218000",
          "143058.218000",
          "143058.218000",
          "143058.218000",
          "143058.218000",
          "143058.218000",
          "143058.218000",
          "143058.218000",
          "143138.187000",
          "143138.187000",
          "143138.187000",
          "143138.187000",
          "143138.187000",
          "143138.203000",
          "143138.203000",
          "143138.203000",
          "143138.203000",
          "143138.203000",
          "143138.203000",
          "143138.203000",
          "143138.218000",
          "143138.218000",
          "143138.218000",
          "143138.218000",
          "143138.218000",
          "143138.218000",
          "143138.218000",
          "143138.218000",
          "143218.187000",
          "143218.187000",
          "143218.187000",
          "143218.187000",
          "143218.187000",
          "143218.203000",
          "143218.203000",
          "143218.203000",
          "143218.203000",
          "143218.203000",
          "143218.203000",
          "143218.203000",
          "143218.218000",
          "143218.218000",
          "143218.218000",
          "143218.218000",
          "143218.218000",
          "143218.218000",
          "143218.218000",
          "143218.218000",
          "143258.187000",
          "143258.187000",
          "143258.187000",
          "143258.187000",
          "143258.187000",
          "143258.203000",
          "143258.203000",
          "143258.203000",
          "143258.203000",
          "143258.203000",
          "143258.203000",
          "143258.203000",
