{
  "aor": 0.0013173540856031127,
  "aqi": 0.00934751167315175,
  "bids_meta": {
    "AcquisitionMatrixPE": 68,
    "AcquisitionNumber": 1,
    "AcquisitionTime": "15:04:36.962500",
    "BandwidthPerPixelPhaseEncode": 31.289,
    "BaseResolution": 68,
    "CogAtlasID": "TODO",
    "CoilString": "C:HEA;HEP",
    "ConversionSoftware": "dcm2niix",
    "ConversionSoftwareVersion": "v1.0.20190902",
    "DerivedVendorReportedEchoSpacing": 0.000470002,
    "DeviceSerialNumber": "35450",
    "DwellTime": 3e-06,
    "EchoTime": 0.023,
    "EffectiveEchoSpacing": 0.000470002,
    "FlipAngle": 76,
    "ImageOrientationPatientDICOM": [
      0.998027,
      -0.00416133,
      -0.0626525,
      -4.56857e-08,
      0.997801,
      -0.0662739
    ],
    "ImageType": [
      "ORIGINAL",
      "PRIMARY",
      "M",
      "ND",
      "MOSAIC"
    ],
    "ImagingFrequency": 123.219,
    "InPlanePhaseEncodingDirectionDICOM": "COL",
    "InstitutionAddress": "Univeristy_Ave._197_Newark_North_East_US_07102-1814",
    "InstitutionName": "RUBIC",
    "InstitutionalDepartmentName": "Department",
    "MRAcquisitionType": "2D",
    "MagneticFieldStrength": 3,
    "Manufacturer": "Siemens",
    "ManufacturersModelName": "TrioTim",
    "Modality": "MR",
    "PartialFourier": 1,
    "PatientPosition": "HFS",
    "PercentPhaseFOV": 100,
    "PhaseEncodingDirection": "j-",
    "PhaseEncodingSteps": 68,
    "PhaseResolution": 1,
    "PixelBandwidth": 2451,
    "ProcedureStepDescription": "Krekelberg_David",
    "ProtocolName": "ep2d_bold_CardGameEPI_3",
    "PulseSequenceDetails": "%SiemensSeq%_ep2d_bold",
    "ReceiveCoilName": "HeadMatrix",
    "ReconMatrixPE": 68,
    "RepetitionTime": 2,
    "SAR": 0.183974,
    "ScanOptions": "FS",
    "ScanningSequence": "EP",
    "SequenceName": "_epfid2d1_68",
    "SequenceVariant": "SK",
    "SeriesDescription": "ep2d_bold_CardGameEPI_3",
    "SeriesNumber": 14,
    "ShimSetting": [
      1898,
      -590,
      -7668,
      882,
      -62,
      200,
      -424,
      -23
    ],
    "SliceThickness": 2.5,
    "SliceTiming": [
      1.9525,
      1.8975,
      1.84,
      1.785,
      1.73,
      1.6725,
      1.6175,
      1.5625,
      1.5075,
      1.45,
      1.395,
      1.34,
      1.2825,
      1.2275,
      1.1725,
      1.115,
      1.06,
      1.005,
      0.9475,
      0.8925,
      0.8375,
      0.7825,
      0.725,
      0.67,
      0.615,
      0.5575,
      0.5025,
      0.4475,
      0.39,
      0.335,
      0.28,
      0.225,
      0.1675,
      0.1125,
      0.0575,
      0
    ],
    "SoftwareVersions": "syngo_MR_B19",
    "SpacingBetweenSlices": 3,
    "StationName": "MRC35450",
    "TaskName": "cardgame",
    "TotalReadoutTime": 0.0314901,
    "TxRefAmp": 326.752,
    "dataset": "<unset>",
    "dcmmeta_affine": [
      [
        -2.994080066680908,
        -1.3705708568068076e-07,
        -0.18837155401706696,
        108.48506164550781
      ],
      [
        0.012483981437981129,
        2.9934043884277344,
        -0.19842937588691711,
        -76.7635269165039
      ],
      [
        -0.18795742094516754,
        0.19882169365882874,
        2.987497568130493,
        -40.92658233642578
      ],
      [
        0.0,
        0.0,
        0.0,
        1.0
      ]
    ],
    "dcmmeta_reorient_transform": [
      [
        0.0,
        -1.0,
        0.0,
        67.0
      ],
      [
        1.0,
        0.0,
        0.0,
        0.0
      ],
      [
        0.0,
        0.0,
        1.0,
        0.0
      ],
      [
        0.0,
        0.0,
        0.0,
        1.0
      ]
    ],
    "dcmmeta_shape": [
      68,
      68,
      36,
      258
    ],
    "dcmmeta_slice_dim": 2,
    "dcmmeta_version": 0.6,
    "global": {
      "const": {
        "AcquisitionMatrix": [
          68,
          0,
          0,
          68
        ],
        "AngioFlag": "N",
        "BitsAllocated": 16,
        "BitsStored": 12,
        "Columns": 408,
        "EchoNumbers": 1,
        "EchoTime": 23.0,
        "EchoTrainLength": 1,
        "FlipAngle": 76.0,
        "HighBit": 11,
        "ImageOrientationPatient": [
          0.99802672849261,
          -0.0041613270076,
          -0.062652474587,
          -4.5685696e-08,
          0.99780146836257,
          -0.0662738993383
        ],
        "ImagePositionPatient": [
          -617.47866258047,
          -630.55104386825,
          38.146921249977
        ],
        "ImageType": [
          "ORIGINAL",
          "PRIMARY",
          "M",
          "ND",
          "MOSAIC"
        ],
        "ImagedNucleus": "1H",
        "ImagingFrequency": 123.21875,
        "InPlanePhaseEncodingDirection": "COL",
        "MRAcquisitionType": "2D",
        "MagneticFieldStrength": 3.0,
        "Manufacturer": "SIEMENS",
        "ManufacturerModelName": "TrioTim",
        "Modality": "MR",
        "NumberOfAverages": 1.0,
        "NumberOfPhaseEncodingSteps": 68,
        "PercentPhaseFieldOfView": 100.0,
        "PercentSampling": 100.0,
        "PerformedProcedureStepStartTime": "131936.968000",
        "PhotometricInterpretation": "MONOCHROME2",
        "PixelBandwidth": 2451.0,
        "PixelRepresentation": 0,
        "PixelSpacing": [
          3.0,
          3.0
        ],
        "ProtocolName": "ep2d_bold_CardGameEPI_3",
        "RepetitionTime": 2000.0,
        "Rows": 408,
        "SAR": 0.18397378479846,
        "SamplesPerPixel": 1,
        "ScanOptions": "FS",
        "ScanningSequence": "EP",
        "SequenceName": "*epfid2d1_68",
        "SequenceVariant": "SK",
        "SeriesDescription": "ep2d_bold_CardGameEPI_3",
        "SeriesNumber": 14,
        "SeriesTime": "150451.546000",
        "SliceLocation": -42.490477120767,
        "SliceThickness": 2.5,
        "SmallestImagePixelValue": 0,
        "SoftwareVersions": "syngo MR B19",
        "SpacingBetweenSlices": 2.9999999955643,
        "SpecificCharacterSet": "ISO_IR 100",
        "StudyID": "1",
        "StudyTime": "131936.937000",
        "TransmitCoilName": "Body",
        "VariableFlipAngleFlag": "N",
        "WindowCenterWidthExplanation": "Algo1",
        "dBdt": 0.0
      },
      "slices": {}
    },
    "modality": "bold",
    "run_id": 3,
    "subject_id": "189",
    "task_id": "cardgame",
    "time": {
      "samples": {
        "AcquisitionNumber": [
          1,
          2,
          3,
          4,
          5,
          6,
          7,
          8,
          9,
          10,
          11,
          12,
          13,
          14,
          15,
          16,
          17,
          18,
          19,
          20,
          21,
          22,
          23,
          24,
          25,
          26,
          27,
          28,
          29,
          30,
          31,
          32,
          33,
          34,
          35,
          36,
          37,
          38,
          39,
          40,
          41,
          42,
          43,
          44,
          45,
          46,
          47,
          48,
          49,
          50,
          51,
          52,
          53,
          54,
          55,
          56,
          57,
          58,
          59,
          60,
          61,
          62,
          63,
          64,
          65,
          66,
          67,
          68,
          69,
          70,
          71,
          72,
          73,
          74,
          75,
          76,
          77,
          78,
          79,
          80,
          81,
          82,
          83,
          84,
          85,
          86,
          87,
          88,
          89,
          90,
          91,
          92,
          93,
          94,
          95,
          96,
          97,
          98,
          99,
          100,
          101,
          102,
          103,
          104,
          105,
          106,
          107,
          108,
          109,
          110,
          111,
          112,
          113,
          114,
          115,
          116,
          117,
          118,
          119,
          120,
          121,
          122,
          123,
          124,
          125,
          126,
          127,
          128,
          129,
          130,
          131,
          132,
          133,
          134,
          135,
          136,
          137,
          138,
          139,
          140,
          141,
          142,
          143,
          144,
          145,
          146,
          147,
          148,
          149,
          150,
          151,
          152,
          153,
          154,
          155,
          156,
          157,
          158,
          159,
          160,
          161,
          162,
          163,
          164,
          165,
          166,
          167,
          168,
          169,
          170,
          171,
          172,
          173,
          174,
          175,
          176,
          177,
          178,
          179,
          180,
          181,
          182,
          183,
          184,
          185,
          186,
          187,
          188,
          189,
          190,
          191,
          192,
          193,
          194,
          195,
          196,
          197,
          198,
          199,
          200,
          201,
          202,
          203,
          204,
          205,
          206,
          207,
          208,
          209,
          210,
          211,
          212,
          213,
          214,
          215,
          216,
          217,
          218,
          219,
          220,
          221,
          222,
          223,
          224,
          225,
          226,
          227,
          228,
          229,
          230,
          231,
          232,
          233,
          234,
          235,
          236,
          237,
          238,
          239,
          240,
          241,
          242,
          243,
          244,
          245,
          246,
          247,
          248,
          249,
          250,
          251,
          252,
          253,
          254,
          255,
          256,
          257,
          258
        ],
        "AcquisitionTime": [
          "150436.962500",
          "150438.970000",
          "150440.977500",
          "150442.987500",
          "150444.995000",
          "150447.002500",
          "150449.010000",
          "150451.017500",
          "150453.027500",
          "150455.035000",
          "150457.042500",
          "150459.050000",
          "150501.060000",
          "150503.067500",
          "150505.075000",
          "150507.082500",
          "150509.090000",
          "150511.100000",
          "150513.107500",
          "150515.115000",
          "150517.122500",
          "150519.130000",
          "150521.140000",
          "150523.147500",
          "150525.155000",
          "150527.162500",
          "150529.172500",
          "150531.180000",
          "150533.187500",
          "150535.195000",
          "150537.202500",
          "150539.212500",
          "150541.220000",
          "150543.227500",
          "150545.235000",
          "150547.242500",
          "150549.252500",
          "150551.260000",
          "150553.267500",
          "150555.275000",
          "150557.285000",
          "150559.292500",
          "150601.300000",
          "150603.307500",
          "150605.315000",
          "150607.325000",
          "150609.332500",
          "150611.340000",
          "150613.347500",
          "150615.355000",
          "150617.365000",
          "150619.372500",
          "150621.380000",
          "150623.387500",
          "150625.395000",
          "150627.405000",
          "150629.412500",
          "150631.420000",
          "150633.427500",
          "150635.437500",
          "150637.445000",
          "150639.452500",
          "150641.460000",
          "150643.467500",
          "150645.477500",
          "150647.485000",
          "150649.492500",
          "150651.500000",
          "150653.507500",
          "150655.517500",
          "150657.525000",
          "150659.532500",
          "150701.540000",
          "150703.550000",
          "150705.557500",
          "150707.565000",
          "150709.572500",
          "150711.580000",
          "150713.590000",
          "150715.597500",
          "150717.605000",
          "150719.612500",
          "150721.620000",
          "150723.630000",
          "150725.637500",
          "150727.645000",
          "150729.652500",
          "150731.662500",
          "150733.670000",
          "150735.677500",
          "150737.685000",
          "150739.692500",
          "150741.702500",
          "150743.710000",
          "150745.717500",
          "150747.725000",
          "150749.732500",
          "150751.742500",
          "150753.750000",
          "150755.757500",
          "150757.765000",
          "150759.772500",
          "150801.782500",
          "150803.790000",
          "150805.797500",
          "150807.805000",
          "150809.815000",
          "150811.822500",
          "150813.830000",
          "150815.837500",
          "150817.845000",
          "150819.855000",
          "150821.862500",
          "150823.870000",
          "150825.877500",
          "150827.885000",
          "150829.895000",
          "150831.902500",
          "150833.910000",
          "150835.917500",
          "150837.927500",
          "150839.935000",
          "150841.942500",
          "150843.950000",
          "150845.957500",
          "150847.967500",
          "150849.975000",
          "150851.982500",
          "150853.990000",
          "150855.997500",
          "150858.007500",
          "150900.015000",
          "150902.022500",
          "150904.030000",
          "150906.040000",
          "150908.047500",
          "150910.055000",
          "150912.062500",
          "150914.070000",
          "150916.080000",
          "150918.087500",
          "150920.095000",
          "150922.102500",
          "150924.110000",
          "150926.120000",
          "150928.127500",
          "150930.135000",
          "150932.142500",
          "150934.150000",
          "150936.160000",
          "150938.167500",
          "150940.175000",
          "150942.182500",
          "150944.192500",
          "150946.200000",
          "150948.207500",
          "150950.215000",
          "150952.222500",
          "150954.232500",
          "150956.240000",
          "150958.247500",
          "151000.255000",
          "151002.262500",
          "151004.272500",
          "151006.280000",
          "151008.287500",
          "151010.295000",
          "151012.305000",
          "151014.312500",
          "151016.320000",
          "151018.327500",
          "151020.335000",
          "151022.345000",
          "151024.352500",
          "151026.360000",
          "151028.367500",
          "151030.375000",
          "151032.385000",
          "151034.392500",
          "151036.400000",
          "151038.407500",
          "151040.417500",
          "151042.425000",
          "151044.432500",
          "151046.440000",
          "151048.447500",
          "151050.457500",
          "151052.465000",
          "151054.472500",
          "151056.480000",
          "151058.487500",
          "151100.497500",
          "151102.505000",
          "151104.512500",
          "151106.520000",
          "151108.527500",
          "151110.537500",
          "151112.545000",
          "151114.552500",
          "151116.560000",
          "151118.570000",
          "151120.577500",
          "151122.585000",
          "151124.592500",
          "151126.600000",
          "151128.610000",
          "151130.617500",
          "151132.625000",
          "151134.632500",
          "151136.640000",
          "151138.650000",
          "151140.657500",
          "151142.665000",
          "151144.672500",
          "151146.682500",
          "151148.690000",
          "151150.697500",
          "151152.705000",
          "151154.712500",
          "151156.722500",
          "151158.730000",
          "151200.737500",
          "151202.745000",
          "151204.752500",
          "151206.762500",
          "151208.770000",
          "151210.777500",
          "151212.785000",
          "151214.795000",
          "151216.802500",
          "151218.810000",
          "151220.817500",
          "151222.825000",
          "151224.835000",
          "151226.842500",
          "151228.850000",
          "151230.857500",
          "151232.865000",
          "151234.875000",
          "151236.882500",
          "151238.890000",
          "151240.897500",
          "151242.907500",
          "151244.915000",
          "151246.922500",
          "151248.930000",
          "151250.937500",
          "151252.947500",
          "151254.955000",
          "151256.962500",
          "151258.970000",
          "151300.977500",
          "151302.987500",
          "151304.995000",
          "151307.002500",
          "151309.010000",
          "151311.017500",
          "151313.027500"
        ],
        "ContentTime": [
          "150451.546000",
          "150451.546000",
          "150451.562000",
          "150451.562000",
          "150451.562000",
          "150451.562000",
          "150451.562000",
          "150531.546000",
          "150531.546000",
          "150531.546000",
          "150531.546000",
          "150531.562000",
          "150531.562000",
          "150531.562000",
          "150531.562000",
          "150531.562000",
          "150531.562000",
          "150531.562000",
          "150531.562000",
          "150531.578000",
          "150531.578000",
          "150531.578000",
          "150531.578000",
          "150531.578000",
          "150531.578000",
          "150531.578000",
          "150531.578000",
          "150611.546000",
          "150611.546000",
          "150611.546000",
          "150611.546000",
          "150611.562000",
          "150611.562000",
          "150611.562000",
          "150611.562000",
          "150611.562000",
          "150611.562000",
          "150611.562000",
          "150611.562000",
          "150611.578000",
          "150611.578000",
          "150611.578000",
          "150611.578000",
          "150611.578000",
          "150611.578000",
          "150611.578000",
          "150611.578000",
          "150651.546000",
          "150651.546000",
          "150651.546000",
          "150651.546000",
          "150651.562000",
          "150651.562000",
          "150651.562000",
          "150651.562000",
          "150651.562000",
          "150651.562000",
          "150651.562000",
          "150651.562000",
          "150651.578000",
          "150651.578000",
          "150651.578000",
          "150651.578000",
          "150651.578000",
          "150651.578000",
          "150651.578000",
          "150651.578000",
          "150731.546000",
          "150731.546000",
          "150731.546000",
          "150731.546000",
          "150731.546000",
          "150731.562000",
          "150731.562000",
          "150731.562000",
          "150731.562000",
          "150731.562000",
          "150731.562000",
          "150731.562000",
          "150731.578000",
          "150731.578000",
          "150731.578000",
          "150731.578000",
          "150731.578000",
          "150731.578000",
          "150731.578000",
          "150731.578000",
          "150811.562000",
          "150811.562000",
          "150811.562000",
          "150811.562000",
          "150811.562000",
          "150811.578000",
          "150811.578000",
          "150811.578000",
          "150811.578000",
          "150811.578000",
          "150811.578000",
          "150811.578000",
          "150811.593000",
          "150811.593000",
          "150811.593000",
          "150811.593000",
          "150811.593000",
          "150811.593000",
          "150811.593000",
          "150811.593000",
          "150851.546000",
          "150851.546000",
          "150851.546000",
          "150851.546000",
          "150851.562000",
          "150851.562000",
          "150851.562000",
          "150851.562000",
          "150851.562000",
          "150851.562000",
          "150851.562000",
          "150851.562000",
          "150851.578000",
          "150851.578000",
          "150851.578000",
          "150851.578000",
          "150851.578000",
          "150851.578000",
          "150851.578000",
          "150851.578000",
          "150931.546000",
          "150931.546000",
          "150931.546000",
          "150931.546000",
          "150931.546000",
          "150931.562000",
          "150931.562000",
          "150931.562000",
          "150931.562000",
          "150931.562000",
          "150931.562000",
          "150931.562000",
          "150931.578000",
          "150931.578000",
          "150931.578000",
          "150931.578000",
          "150931.578000",
          "150931.578000",
          "150931.578000",
          "150931.578000",
          "151011.546000",
          "151011.546000",
          "151011.546000",
          "151011.546000",
          "151011.546000",
          "151011.562000",
          "151011.562000",
          "151011.562000",
          "151011.562000",
          "151011.562000",
          "151011.562000",
          "151011.562000",
          "151011.578000",
          "151011.578000",
          "151011.578000",
          "151011.578000",
          "151011.578000",
          "151011.578000",
          "151011.578000",
          "151011.578000",
          "151051.546000",
          "151051.546000",
          "151051.546000",
          "151051.546000",
          "151051.562000",
          "151051.562000",
          "151051.562000",
          "151051.562000",
          "151051.562000",
          "151051.562000",
          "151051.562000",
          "151051.562000",
          "151051.578000",
          "151051.578000",
          "151051.578000",
          "151051.578000",
          "151051.578000",
          "151051.578000",
          "151051.578000",
          "151051.593000",
          "151131.546000",
          "151131.546000",
          "151131.546000",
          "151131.546000",
          "151131.546000",
          "151131.562000",
          "151131.562000",
          "151131.562000",
          "151131.562000",
          "151131.562000",
          "151131.562000",
          "151131.562000",
          "151131.578000",
          "151131.578000",
          "151131.578000",
          "151131.578000",
          "151131.578000",
          "151131.578000",
          "151131.578000",
          "151131.578000",
          "151211.546000",
          "151211.546000",
          "151211.546000",
          "151211.546000",
          "151211.562000",
          "151211.562000",
          "151211.562000",
          "151211.562000",
          "151211.562000",
          "151211.562000",
          "151211.562000",
          "151211.562000",
          "151211.578000",
          "151211.578000",
          "151211.578000",
          "151211.578000",
          "151211.578000",
          "151211.578000",
          "151211.578000",
          "151211.593000",
          "151251.546000",
          "151251.546000",
          "151251.546000",
          "151251.546000",
          "151251.562000",
          "151251.562000",
          "151251.562000",
          "151251.562000",
          "151251.562000",
          "151251.562000",
          "151251.562000",
          "151251.562000",
          "151251.578000",
          "151251.578000",
          "151251.578000",
          "151251.578000",
          "151251.578000",
          "151251.578000",
          "151251.578000",
          "151251.578000",
          "151311.828000",
          "151311.843000",
          "151311.843000",
          "151311.843000",
          "151311.843000",
          "151311.843000",
          "151311.843000",
          "151311.843000",
          "151311.843000",
          "151311.859000",
          "151311.859000"
        ],
        "InstanceCreationTime": [
          "150451.546000",
          "150451.546000",
          "150451.562000",
          "150451.562000",
          "150451.562000",
          "150451.562000",
          "150451.562000",
          "150531.546000",
          "150531.546000",
          "150531.546000",
          "150531.546000",
          "150531.562000",
          "150531.562000",
          "150531.562000",
          "150531.562000",
          "150531.562000",
          "150531.562000",
          "150531.562000",
          "150531.562000",
          "150531.578000",
          "150531.578000",
          "150531.578000",
          "150531.578000",
          "150531.578000",
          "150531.578000",
          "150531.578000",
          "150531.578000",
          "150611.546000",
          "150611.546000",
          "150611.546000",
          "150611.546000",
          "150611.562000",
          "150611.562000",
          "150611.562000",
          "150611.562000",
          "150611.562000",
          "150611.562000",
          "150611.562000",
          "150611.562000",
          "150611.578000",
          "150611.578000",
          "150611.578000",
          "150611.578000",
          "150611.578000",
          "150611.578000",
          "150611.578000",
          "150611.578000",
          "150651.546000",
          "150651.546000",
          "150651.546000",
          "150651.546000",
          "150651.562000",
          "150651.562000",
          "150651.562000",
          "150651.562000",
          "150651.562000",
          "150651.562000",
          "150651.562000",
          "150651.562000",
          "150651.578000",
          "150651.578000",
          "150651.578000",
          "150651.578000",
          "150651.578000",
          "150651.578000",
          "150651.578000",
          "150651.578000",
          "150731.546000",
          "150731.546000",
          "150731.546000",
          "150731.546000",
          "150731.546000",
          "150731.562000",
          "150731.562000",
          "150731.562000",
          "150731.562000",
          "150731.562000",
          "150731.562000",
          "150731.562000",
          "150731.578000",
          "150731.578000",
          "150731.578000",
          "150731.578000",
          "150731.578000",
          "150731.578000",
          "150731.578000",
          "150731.578000",
          "150811.562000",
          "150811.562000",
          "150811.562000",
          "150811.562000",
          "150811.562000",
          "150811.578000",
          "150811.578000",
          "150811.578000",
          "150811.578000",
          "150811.578000",
          "150811.578000",
          "150811.578000",
          "150811.593000",
          "150811.593000",
          "150811.593000",
          "150811.593000",
          "150811.593000",
          "150811.593000",
          "150811.593000",
          "150811.593000",
          "150851.546000",
          "150851.546000",
          "150851.546000",
          "150851.546000",
          "150851.562000",
          "150851.562000",
          "150851.562000",
          "150851.562000",
          "150851.562000",
          "150851.562000",
          "150851.562000",
          "150851.562000",
          "150851.578000",
          "150851.578000",
          "150851.578000",
          "150851.578000",
          "150851.578000",
          "150851.578000",
          "150851.578000",
          "150851.578000",
          "150931.546000",
          "150931.546000",
          "150931.546000",
          "150931.546000",
          "150931.546000",
          "150931.562000",
          "150931.562000",
          "150931.562000",
          "150931.562000",
          "150931.562000",
          "150931.562000",
          "150931.562000",
          "150931.578000",
          "150931.578000",
          "150931.578000",
          "150931.578000",
          "150931.578000",
          "150931.578000",
          "150931.578000",
          "150931.578000",
          "151011.546000",
          "151011.546000",
          "151011.546000",
          "151011.546000",
          "151011.546000",
          "151011.562000",
          "151011.562000",
          "151011.562000",
          "151011.562000",
          "151011.562000",
          "151011.562000",
          "151011.562000",
          "151011.578000",
          "151011.578000",
          "151011.578000",
          "151011.578000",
          "151011.578000",
          "151011.578000",
          "151011.578000",
          "151011.578000",
          "151051.546000",
          "151051.546000",
          "151051.546000",
          "151051.546000",
          "151051.562000",
          "151051.562000",
          "151051.562000",
          "151051.562000",
          "151051.562000",
          "151051.562000",
          "151051.562000",
          "151051.562000",
          "151051.578000",
          "151051.578000",
          "151051.578000",
          "151051.578000",
          "151051.578000",
          "151051.578000",
          "151051.578000",
          "151051.593000",
          "151131.546000",
          "151131.546000",
          "151131.546000",
          "151131.546000",
          "151131.546000",
          "151131.562000",
          "151131.562000",
          "151131.562000",
          "151131.562000",
          "151131.562000",
          "151131.562000",
          "151131.562000",
          "151131.578000",
          "151131.578000",
          "151131.578000",
          "151131.578000",
          "151131.578000",
          "151131.578000",
          "151131.578000",
          "151131.578000",
          "151211.546000",
          "151211.546000",
          "151211.546000",
          "151211.546000",
          "151211.562000",
          "151211.562000",
          "151211.562000",
          "151211.562000",
          "151211.562000",
          "151211.562000",
