{
  "aor": 0.0004200418410041841,
  "aqi": 0.006972805648535566,
  "bids_meta": {
    "AcquisitionMatrixPE": 68,
    "AcquisitionNumber": 1,
    "AcquisitionTime": "14:36:5.087500",
    "BandwidthPerPixelPhaseEncode": 31.289,
    "BaseResolution": 68,
    "CogAtlasID": "TODO",
    "CoilString": "C:HEA;HEP",
    "ConversionSoftware": "dcm2niix",
    "ConversionSoftwareVersion": "v1.0.20190902",
    "DerivedVendorReportedEchoSpacing": 0.000470002,
    "DeviceSerialNumber": "35450",
    "DwellTime": 3e-06,
    "EchoTime": 0.023,
    "EffectiveEchoSpacing": 0.000470002,
    "FlipAngle": 76,
    "ImageOrientationPatientDICOM": [
      0.998027,
      -0.00416133,
      -0.0626525,
      -4.56857e-08,
      0.997801,
      -0.0662739
    ],
    "ImageType": [
      "ORIGINAL",
      "PRIMARY",
      "M",
      "ND",
      "MOSAIC"
    ],
    "ImagingFrequency": 123.219,
    "InPlanePhaseEncodingDirectionDICOM": "COL",
    "InstitutionAddress": "Univeristy_Ave._197_Newark_North_East_US_07102-1814",
    "InstitutionName": "RUBIC",
    "InstitutionalDepartmentName": "Department",
    "MRAcquisitionType": "2D",
    "MagneticFieldStrength": 3,
    "Manufacturer": "Siemens",
    "ManufacturersModelName": "TrioTim",
    "Modality": "MR",
    "PartialFourier": 1,
    "PatientPosition": "HFS",
    "PercentPhaseFOV": 100,
    "PhaseEncodingDirection": "j-",
    "PhaseEncodingSteps": 68,
    "PhaseResolution": 1,
    "PixelBandwidth": 2451,
    "ProcedureStepDescription": "Krekelberg_David",
    "ProtocolName": "ep2d_bold_RestEPI_2",
    "PulseSequenceDetails": "%SiemensSeq%_ep2d_bold",
    "ReceiveCoilName": "HeadMatrix",
    "ReconMatrixPE": 68,
    "RepetitionTime": 2,
    "SAR": 0.183934,
    "ScanOptions": "FS",
    "ScanningSequence": "EP",
    "SequenceName": "_epfid2d1_68",
    "SequenceVariant": "SK",
    "SeriesDescription": "ep2d_bold_RestEPI_2",
    "SeriesNumber": 11,
    "ShimSetting": [
      1898,
      -590,
      -7668,
      882,
      -62,
      200,
      -424,
      -23
    ],
    "SliceThickness": 2.5,
    "SliceTiming": [
      1.9525,
      1.895,
      1.84,
      1.785,
      1.73,
      1.6725,
      1.6175,
      1.5625,
      1.505,
      1.45,
      1.395,
      1.3375,
      1.2825,
      1.2275,
      1.17,
      1.115,
      1.06,
      1.005,
      0.9475,
      0.8925,
      0.8375,
      0.78,
      0.725,
      0.67,
      0.6125,
      0.5575,
      0.5025,
      0.4475,
      0.39,
      0.335,
      0.28,
      0.2225,
      0.1675,
      0.1125,
      0.055,
      0
    ],
    "SoftwareVersions": "syngo_MR_B19",
    "SpacingBetweenSlices": 3,
    "StationName": "MRC35450",
    "TaskName": "rest",
    "TotalReadoutTime": 0.0314901,
    "TxRefAmp": 326.752,
    "dataset": "<unset>",
    "dcmmeta_affine": [
      [
        -2.994080066680908,
        -1.3705708568068076e-07,
        -0.18837155401706696,
        108.48506164550781
      ],
      [
        0.012483981437981129,
        2.9934043884277344,
        -0.19842937588691711,
        -76.7635269165039
      ],
      [
        -0.18795742094516754,
        0.19882169365882874,
        2.987497568130493,
        -40.92658233642578
      ],
      [
        0.0,
        0.0,
        0.0,
        1.0
      ]
    ],
    "dcmmeta_reorient_transform": [
      [
        0.0,
        -1.0,
        0.0,
        67.0
      ],
      [
        1.0,
        0.0,
        0.0,
        0.0
      ],
      [
        0.0,
        0.0,
        1.0,
        0.0
      ],
      [
        0.0,
        0.0,
        0.0,
        1.0
      ]
    ],
    "dcmmeta_shape": [
      68,
      68,
      36,
      240
    ],
    "dcmmeta_slice_dim": 2,
    "dcmmeta_version": 0.6,
    "global": {
      "const": {
        "AcquisitionMatrix": [
          68,
          0,
          0,
          68
        ],
        "AngioFlag": "N",
        "BitsAllocated": 16,
        "BitsStored": 12,
        "Columns": 408,
        "EchoNumbers": 1,
        "EchoTime": 23.0,
        "EchoTrainLength": 1,
        "FlipAngle": 76.0,
        "HighBit": 11,
        "ImageOrientationPatient": [
          0.99802672849261,
          -0.0041613270076,
          -0.062652474587,
          -4.5685696e-08,
          0.99780146836257,
          -0.0662738993383
        ],
        "ImagePositionPatient": [
          -617.47866258047,
          -630.55104386825,
          38.146921249977
        ],
        "ImageType": [
          "ORIGINAL",
          "PRIMARY",
          "M",
          "ND",
          "MOSAIC"
        ],
        "ImagedNucleus": "1H",
        "ImagingFrequency": 123.218707,
        "InPlanePhaseEncodingDirection": "COL",
        "MRAcquisitionType": "2D",
        "MagneticFieldStrength": 3.0,
        "Manufacturer": "SIEMENS",
        "ManufacturerModelName": "TrioTim",
        "Modality": "MR",
        "NumberOfAverages": 1.0,
        "NumberOfPhaseEncodingSteps": 68,
        "PercentPhaseFieldOfView": 100.0,
        "PercentSampling": 100.0,
        "PerformedProcedureStepStartTime": "131936.968000",
        "PhotometricInterpretation": "MONOCHROME2",
        "PixelBandwidth": 2451.0,
        "PixelRepresentation": 0,
        "PixelSpacing": [
          3.0,
          3.0
        ],
        "ProtocolName": "ep2d_bold_RestEPI_2",
        "RepetitionTime": 2000.0,
        "Rows": 408,
        "SAR": 0.18393443367599,
        "SamplesPerPixel": 1,
        "ScanOptions": "FS",
        "ScanningSequence": "EP",
        "SequenceName": "*epfid2d1_68",
        "SequenceVariant": "SK",
        "SeriesDescription": "ep2d_bold_RestEPI_2",
        "SeriesNumber": 11,
        "SeriesTime": "143651.546000",
        "SliceLocation": -42.490477120767,
        "SliceThickness": 2.5,
        "SmallestImagePixelValue": 0,
        "SoftwareVersions": "syngo MR B19",
        "SpacingBetweenSlices": 2.9999999955643,
        "SpecificCharacterSet": "ISO_IR 100",
        "StudyID": "1",
        "StudyTime": "131936.937000",
        "TransmitCoilName": "Body",
        "VariableFlipAngleFlag": "N",
        "WindowCenterWidthExplanation": "Algo1",
        "dBdt": 0.0
      },
      "slices": {}
    },
    "modality": "bold",
    "run_id": 2,
    "subject_id": "189",
    "task_id": "rest",
    "time": {
      "samples": {
        "AcquisitionNumber": [
          1,
          2,
          3,
          4,
          5,
          6,
          7,
          8,
          9,
          10,
          11,
          12,
          13,
          14,
          15,
          16,
          17,
          18,
          19,
          20,
          21,
          22,
          23,
          24,
          25,
          26,
          27,
          28,
          29,
          30,
          31,
          32,
          33,
          34,
          35,
          36,
          37,
          38,
          39,
          40,
          41,
          42,
          43,
          44,
          45,
          46,
          47,
          48,
          49,
          50,
          51,
          52,
          53,
          54,
          55,
          56,
          57,
          58,
          59,
          60,
          61,
          62,
          63,
          64,
          65,
          66,
          67,
          68,
          69,
          70,
          71,
          72,
          73,
          74,
          75,
          76,
          77,
          78,
          79,
          80,
          81,
          82,
          83,
          84,
          85,
          86,
          87,
          88,
          89,
          90,
          91,
          92,
          93,
          94,
          95,
          96,
          97,
          98,
          99,
          100,
          101,
          102,
          103,
          104,
          105,
          106,
          107,
          108,
          109,
          110,
          111,
          112,
          113,
          114,
          115,
          116,
          117,
          118,
          119,
          120,
          121,
          122,
          123,
          124,
          125,
          126,
          127,
          128,
          129,
          130,
          131,
          132,
          133,
          134,
          135,
          136,
          137,
          138,
          139,
          140,
          141,
          142,
          143,
          144,
          145,
          146,
          147,
          148,
          149,
          150,
          151,
          152,
          153,
          154,
          155,
          156,
          157,
          158,
          159,
          160,
          161,
          162,
          163,
          164,
          165,
          166,
          167,
          168,
          169,
          170,
          171,
          172,
          173,
          174,
          175,
          176,
          177,
          178,
          179,
          180,
          181,
          182,
          183,
          184,
          185,
          186,
          187,
          188,
          189,
          190,
          191,
          192,
          193,
          194,
          195,
          196,
          197,
          198,
          199,
          200,
          201,
          202,
          203,
          204,
          205,
          206,
          207,
          208,
          209,
          210,
          211,
          212,
          213,
          214,
          215,
          216,
          217,
          218,
          219,
          220,
          221,
          222,
          223,
          224,
          225,
          226,
          227,
          228,
          229,
          230,
          231,
          232,
          233,
          234,
          235,
          236,
          237,
          238,
          239,
          240
        ],
        "AcquisitionTime": [
          "143605.087500",
          "143607.095000",
          "143609.102500",
          "143611.110000",
          "143613.120000",
          "143615.127500",
          "143617.135000",
          "143619.142500",
          "143621.150000",
          "143623.160000",
          "143625.167500",
          "143627.175000",
          "143629.182500",
          "143631.192500",
          "143633.200000",
          "143635.207500",
          "143637.215000",
          "143639.222500",
          "143641.232500",
          "143643.240000",
          "143645.247500",
          "143647.255000",
          "143649.262500",
          "143651.272500",
          "143653.280000",
          "143655.287500",
          "143657.295000",
          "143659.305000",
          "143701.312500",
          "143703.320000",
          "143705.327500",
          "143707.335000",
          "143709.345000",
          "143711.352500",
          "143713.360000",
          "143715.367500",
          "143717.375000",
          "143719.385000",
          "143721.392500",
          "143723.400000",
          "143725.407500",
          "143727.415000",
          "143729.425000",
          "143731.432500",
          "143733.440000",
          "143735.447500",
          "143737.457500",
          "143739.465000",
          "143741.472500",
          "143743.480000",
          "143745.487500",
          "143747.497500",
          "143749.505000",
          "143751.512500",
          "143753.520000",
          "143755.527500",
          "143757.537500",
          "143759.545000",
          "143801.552500",
          "143803.560000",
          "143805.570000",
          "143807.577500",
          "143809.585000",
          "143811.592500",
          "143813.600000",
          "143815.610000",
          "143817.617500",
          "143819.625000",
          "143821.632500",
          "143823.640000",
          "143825.650000",
          "143827.657500",
          "143829.665000",
          "143831.672500",
          "143833.682500",
          "143835.690000",
          "143837.697500",
          "143839.705000",
          "143841.712500",
          "143843.722500",
          "143845.730000",
          "143847.737500",
          "143849.745000",
          "143851.752500",
          "143853.762500",
          "143855.770000",
          "143857.777500",
          "143859.785000",
          "143901.792500",
          "143903.802500",
          "143905.810000",
          "143907.817500",
          "143909.825000",
          "143911.835000",
          "143913.842500",
          "143915.850000",
          "143917.857500",
          "143919.865000",
          "143921.875000",
          "143923.882500",
          "143925.890000",
          "143927.897500",
          "143929.905000",
          "143931.915000",
          "143933.922500",
          "143935.930000",
          "143937.937500",
          "143939.947500",
          "143941.955000",
          "143943.962500",
          "143945.970000",
          "143947.977500",
          "143949.987500",
          "143951.995000",
          "143954.002500",
          "143956.010000",
          "143958.017500",
          "144000.027500",
          "144002.035000",
          "144004.042500",
          "144006.050000",
          "144008.060000",
          "144010.067500",
          "144012.075000",
          "144014.082500",
          "144016.090000",
          "144018.100000",
          "144020.107500",
          "144022.115000",
          "144024.122500",
          "144026.130000",
          "144028.140000",
          "144030.147500",
          "144032.155000",
          "144034.162500",
          "144036.170000",
          "144038.180000",
          "144040.187500",
          "144042.195000",
          "144044.202500",
          "144046.212500",
          "144048.220000",
          "144050.227500",
          "144052.235000",
          "144054.242500",
          "144056.252500",
          "144058.260000",
          "144100.267500",
          "144102.275000",
          "144104.282500",
          "144106.292500",
          "144108.300000",
          "144110.307500",
          "144112.315000",
          "144114.325000",
          "144116.332500",
          "144118.340000",
          "144120.347500",
          "144122.355000",
          "144124.365000",
          "144126.372500",
          "144128.380000",
          "144130.387500",
          "144132.395000",
          "144134.405000",
          "144136.412500",
          "144138.420000",
          "144140.427500",
          "144142.437500",
          "144144.445000",
          "144146.452500",
          "144148.460000",
          "144150.467500",
          "144152.477500",
          "144154.485000",
          "144156.492500",
          "144158.500000",
          "144200.507500",
          "144202.517500",
          "144204.525000",
          "144206.532500",
          "144208.540000",
          "144210.547500",
          "144212.557500",
          "144214.565000",
          "144216.572500",
          "144218.580000",
          "144220.590000",
          "144222.597500",
          "144224.605000",
          "144226.612500",
          "144228.620000",
          "144230.630000",
          "144232.637500",
          "144234.645000",
          "144236.652500",
          "144238.660000",
          "144240.670000",
          "144242.677500",
          "144244.685000",
          "144246.692500",
          "144248.702500",
          "144250.710000",
          "144252.717500",
          "144254.725000",
          "144256.732500",
          "144258.742500",
          "144300.750000",
          "144302.757500",
          "144304.765000",
          "144306.772500",
          "144308.782500",
          "144310.790000",
          "144312.797500",
          "144314.805000",
          "144316.815000",
          "144318.822500",
          "144320.830000",
          "144322.837500",
          "144324.845000",
          "144326.855000",
          "144328.862500",
          "144330.870000",
          "144332.877500",
          "144334.885000",
          "144336.895000",
          "144338.902500",
          "144340.910000",
          "144342.917500",
          "144344.925000",
          "144346.935000",
          "144348.942500",
          "144350.950000",
          "144352.957500",
          "144354.967500",
          "144356.975000",
          "144358.982500",
          "144400.990000",
          "144402.997500",
          "144405.007500"
        ],
        "ContentTime": [
          "143651.546000",
          "143651.546000",
          "143651.562000",
          "143651.562000",
          "143651.562000",
          "143651.562000",
          "143651.562000",
          "143651.562000",
          "143651.562000",
          "143651.562000",
          "143651.578000",
          "143651.578000",
          "143651.578000",
          "143651.578000",
          "143651.578000",
          "143651.578000",
          "143651.578000",
          "143651.578000",
          "143651.593000",
          "143651.593000",
          "143651.593000",
          "143651.593000",
          "143651.593000",
          "143731.546000",
          "143731.546000",
          "143731.546000",
          "143731.546000",
          "143731.546000",
          "143731.562000",
          "143731.562000",
          "143731.562000",
          "143731.562000",
          "143731.562000",
          "143731.562000",
          "143731.562000",
          "143731.578000",
          "143731.578000",
          "143731.578000",
          "143731.578000",
          "143731.578000",
          "143731.578000",
          "143731.578000",
          "143731.578000",
          "143811.546000",
          "143811.546000",
          "143811.546000",
          "143811.546000",
          "143811.562000",
          "143811.562000",
          "143811.562000",
          "143811.562000",
          "143811.562000",
          "143811.562000",
          "143811.562000",
          "143811.562000",
          "143811.578000",
          "143811.578000",
          "143811.578000",
          "143811.578000",
          "143811.578000",
          "143811.578000",
          "143811.578000",
          "143811.578000",
          "143851.546000",
          "143851.546000",
          "143851.546000",
          "143851.546000",
          "143851.546000",
          "143851.562000",
          "143851.562000",
          "143851.562000",
          "143851.562000",
          "143851.562000",
          "143851.562000",
          "143851.562000",
          "143851.578000",
          "143851.578000",
          "143851.578000",
          "143851.578000",
          "143851.578000",
          "143851.578000",
          "143851.578000",
          "143851.578000",
          "143931.546000",
          "143931.546000",
          "143931.546000",
          "143931.546000",
          "143931.546000",
          "143931.562000",
          "143931.562000",
          "143931.562000",
          "143931.562000",
          "143931.562000",
          "143931.562000",
          "143931.562000",
          "143931.578000",
          "143931.578000",
          "143931.578000",
          "143931.578000",
          "143931.578000",
          "143931.578000",
          "143931.578000",
          "143931.578000",
          "144011.546000",
          "144011.546000",
          "144011.546000",
          "144011.546000",
          "144011.546000",
          "144011.562000",
          "144011.562000",
          "144011.562000",
          "144011.562000",
          "144011.562000",
          "144011.562000",
          "144011.562000",
          "144011.578000",
          "144011.578000",
          "144011.578000",
          "144011.578000",
          "144011.578000",
          "144011.578000",
          "144011.578000",
          "144011.578000",
          "144051.546000",
          "144051.546000",
          "144051.546000",
          "144051.546000",
          "144051.546000",
          "144051.562000",
          "144051.562000",
          "144051.562000",
          "144051.562000",
          "144051.562000",
          "144051.562000",
          "144051.562000",
          "144051.578000",
          "144051.578000",
          "144051.578000",
          "144051.578000",
          "144051.578000",
          "144051.578000",
          "144051.578000",
          "144051.578000",
          "144131.546000",
          "144131.546000",
          "144131.546000",
          "144131.546000",
          "144131.546000",
          "144131.562000",
          "144131.562000",
          "144131.562000",
          "144131.562000",
          "144131.562000",
          "144131.562000",
          "144131.562000",
          "144131.578000",
          "144131.578000",
          "144131.578000",
          "144131.578000",
          "144131.578000",
          "144131.578000",
          "144131.578000",
          "144131.578000",
          "144211.546000",
          "144211.546000",
          "144211.546000",
          "144211.546000",
          "144211.546000",
          "144211.562000",
          "144211.562000",
          "144211.562000",
          "144211.562000",
          "144211.562000",
          "144211.562000",
          "144211.578000",
          "144211.578000",
          "144211.578000",
          "144211.578000",
          "144211.578000",
          "144211.578000",
          "144211.578000",
          "144211.578000",
          "144211.593000",
          "144251.546000",
          "144251.546000",
          "144251.546000",
          "144251.546000",
          "144251.546000",
          "144251.562000",
          "144251.562000",
          "144251.562000",
          "144251.562000",
          "144251.562000",
          "144251.562000",
          "144251.562000",
          "144251.578000",
          "144251.578000",
          "144251.578000",
          "144251.578000",
          "144251.578000",
          "144251.578000",
          "144251.578000",
          "144251.578000",
          "144331.546000",
          "144331.546000",
          "144331.546000",
          "144331.546000",
          "144331.546000",
          "144331.562000",
          "144331.562000",
          "144331.562000",
          "144331.562000",
          "144331.562000",
          "144331.562000",
          "144331.562000",
          "144331.578000",
          "144331.578000",
          "144331.578000",
          "144331.578000",
          "144331.578000",
          "144331.578000",
          "144331.578000",
          "144331.578000",
          "144403.750000",
          "144403.765000",
          "144403.765000",
          "144403.765000",
          "144403.765000",
          "144403.765000",
          "144403.765000",
          "144403.765000",
          "144403.765000",
          "144403.781000",
          "144403.781000",
          "144403.781000",
          "144403.781000",
          "144403.781000",
          "144403.781000",
          "144403.781000",
          "144403.796000"
        ],
        "InstanceCreationTime": [
          "143651.546000",
          "143651.546000",
          "143651.562000",
          "143651.562000",
          "143651.562000",
          "143651.562000",
          "143651.562000",
          "143651.562000",
          "143651.562000",
          "143651.562000",
          "143651.578000",
          "143651.578000",
          "143651.578000",
          "143651.578000",
          "143651.578000",
          "143651.578000",
          "143651.578000",
          "143651.578000",
          "143651.593000",
          "143651.593000",
          "143651.593000",
          "143651.593000",
          "143651.593000",
          "143731.546000",
          "143731.546000",
          "143731.546000",
          "143731.546000",
          "143731.546000",
          "143731.562000",
          "143731.562000",
          "143731.562000",
          "143731.562000",
          "143731.562000",
          "143731.562000",
          "143731.562000",
          "143731.578000",
          "143731.578000",
          "143731.578000",
          "143731.578000",
          "143731.578000",
          "143731.578000",
          "143731.578000",
          "143731.578000",
          "143811.546000",
          "143811.546000",
          "143811.546000",
          "143811.546000",
          "143811.562000",
          "143811.562000",
          "143811.562000",
          "143811.562000",
          "143811.562000",
          "143811.562000",
          "143811.562000",
          "143811.562000",
          "143811.578000",
          "143811.578000",
          "143811.578000",
          "143811.578000",
          "143811.578000",
          "143811.578000",
          "143811.578000",
          "143811.578000",
          "143851.546000",
          "143851.546000",
          "143851.546000",
          "143851.546000",
          "143851.546000",
          "143851.562000",
          "143851.562000",
          "143851.562000",
          "143851.562000",
          "143851.562000",
          "143851.562000",
          "143851.562000",
          "143851.578000",
          "143851.578000",
          "143851.578000",
          "143851.578000",
          "143851.578000",
          "143851.578000",
          "143851.578000",
          "143851.578000",
          "143931.546000",
          "143931.546000",
          "143931.546000",
          "143931.546000",
          "143931.546000",
          "143931.562000",
          "143931.562000",
          "143931.562000",
          "143931.562000",
          "143931.562000",
          "143931.562000",
          "143931.562000",
          "143931.578000",
          "143931.578000",
          "143931.578000",
          "143931.578000",
          "143931.578000",
          "143931.578000",
          "143931.578000",
          "143931.578000",
          "144011.546000",
          "144011.546000",
          "144011.546000",
          "144011.546000",
          "144011.546000",
          "144011.562000",
          "144011.562000",
          "144011.562000",
          "144011.562000",
          "144011.562000",
          "144011.562000",
          "144011.562000",
          "144011.578000",
          "144011.578000",
          "144011.578000",
          "144011.578000",
          "144011.578000",
          "144011.578000",
          "144011.578000",
          "144011.578000",
          "144051.546000",
          "144051.546000",
          "144051.546000",
          "144051.546000",
          "144051.546000",
          "144051.562000",
          "144051.562000",
          "144051.562000",
          "144051.562000",
          "144051.562000",
          "144051.562000",
          "144051.562000",
          "144051.578000",
          "144051.578000",
          "144051.578000",
          "144051.578000",
          "144051.578000",
          "144051.578000",
          "144051.578000",
          "144051.578000",
          "144131.546000",
          "144131.546000",
          "144131.546000",
          "144131.546000",
          "144131.546000",
          "144131.562000",
          "144131.562000",
          "144131.562000",
          "144131.562000",
          "144131.562000",
          "144131.562000",
          "144131.562000",
          "144131.578000",
          "144131.578000",
          "144131.578000",
          "144131.578000",
          "144131.578000",
          "144131.578000",
          "144131.578000",
          "144131.578000",
          "144211.546000",
          "144211.546000",
          "144211.546000",
          "144211.546000",
          "144211.546000",
          "144211.562000",
          "144211.562000",
          "144211.562000",
          "144211.562000",
          "144211.562000",
          "144211.562000",
          "144211.578000",
          "144211.578000",
          "144211.578000",
          "144211.578000",
          "144211.578000",
          "144211.578000",
          "144211.578000",
          "144211.578000",
          "144211.593000",
          "144251.546000",
          "144251.546000",
          "144251.546000",
          "144251.546000",
          "144251.546000",
          "144251.562000",
          "144251.562000",
          "144251.562000",
          "144251.562000",
          "144251.562000",
          "144251.562000",
          "144251.562000",
          "144251.578000",
          "144251.578000",
          "144251.578000",
          "144251.578000",
          "144251.578000",
          "144251.578000",
          "144251.578000",
          "144251.578000",
          "144331.546000",
          "144331.546000",
          "144331.546000",
          "144331.546000",
          "144331.546000",
          "144331.562000",
          "144331.562000",
          "144331.562000",
          "144331.562000",
          "144331.562000",
          "144331.562000",
          "144331.562000",
          "144331.578000",
          "144331.578000",
          "144331.578000",
          "144331.578000",
          "144331.578000",
          "144331.578000",
          "144331.578000",
          "144331.578000",
          "144403.750000",
          "144403.765000",
          "144403.765000",
          "144403.765000",
          "144403.765000",
          "144403.765000",
          "144403.765000",
          "144403.765000",
          "144403.765000",
          "144403.781000",
          "144403.781000",
          "144403.781000",
          "144403.781000",
          "144403.781000",
          "144403.781000",
          "144403.781000",
          "144403.796000"
        ],
        "InstanceNumber": [
          1,
          2,
          3,
          4,
          5,
          6,
          7,
          8,
          9,
          10,
          11,
          12,
          13,
          14,
          15,
          16,
          17,
          18,
          19,
          20,
          21,
          22,
          23,
          24,
          25,
          26,
          27,
          28,
          29,
          30,
          31,
          32,
          33,
          34,
          35,
          36,
          37,
          38,
          39,
          40,
          41,
          42,
          43,
          44,
          45,
