{
  "AcquisitionMatrixPE": 68,
  "AcquisitionNumber": 1,
  "AcquisitionTime": "11:50:6.985000",
  "BandwidthPerPixelPhaseEncode": 31.289,
  "BaseResolution": 68,
  "CoilString": "C:HEA;HEP",
  "ConversionSoftware": "dcm2niix",
  "ConversionSoftwareVersion": "v1.0.20190902",
  "DerivedVendorReportedEchoSpacing": 0.000470002,
  "DeviceSerialNumber": "35450",
  "DwellTime": 3e-06,
  "EchoTime": 0.023,
  "EffectiveEchoSpacing": 0.000470002,
  "FlipAngle": 76,
  "ImageOrientationPatientDICOM": [1, 0, 0, 0, 0.992546, -0.121869],
  "ImageType": [
    "ORIGINAL",
    "PRIMARY",
    "M",
    "ND",
    "MOSAIC"
],
  "ImagingFrequency": 123.218,
  "InPlanePhaseEncodingDirectionDICOM": "COL",
  "InstitutionAddress": "Univeristy_Ave._197_Newark_North_East_US_07102-1814",
  "InstitutionName": "RUBIC",
  "InstitutionalDepartmentName": "Department",
  "MRAcquisitionType": "2D",
  "MagneticFieldStrength": 3,
  "Manufacturer": "Siemens",
  "ManufacturersModelName": "TrioTim",
  "Modality": "MR",
  "PartialFourier": 1,
  "PatientPosition": "HFS",
  "PercentPhaseFOV": 100,
  "PhaseEncodingDirection": "j-",
  "PhaseEncodingSteps": 68,
  "PhaseResolution": 1,
  "PixelBandwidth": 2451,
  "ProcedureStepDescription": "Krekelberg_David",
  "ProtocolName": "ep2d_bold_CardGameEPI_2",
  "PulseSequenceDetails": "%SiemensSeq%_ep2d_bold",
  "ReceiveCoilName": "HeadMatrix",
  "ReconMatrixPE": 68,
  "RepetitionTime": 2,
  "SAR": 0.186945,
  "ScanOptions": "FS",
  "ScanningSequence": "EP",
  "SequenceName": "_epfid2d1_68",
  "SequenceVariant": "SK",
  "SeriesDescription": "ep2d_bold_CardGameEPI_2",
  "SeriesNumber": 8,
  "ShimSetting": [1960, -584, -7540, 678, -65, -338, -370, -115],
  "SliceThickness": 2.5,
  "SliceTiming": [1.9525, 1.8975, 1.8425, 1.785, 1.73, 1.675, 1.6175, 1.5625, 1.5075, 1.45, 1.395, 1.34, 1.2825, 1.2275, 1.1725, 1.1175, 1.06, 1.005, 0.95, 0.8925, 0.8375, 0.7825, 0.725, 0.67, 0.615, 0.5575, 0.5025, 0.4475, 0.3925, 0.335, 0.28, 0.225, 0.1675, 0.1125, 0.0575, 0],
  "SoftwareVersions": "syngo_MR_B19",
  "SpacingBetweenSlices": 3,
  "StationName": "MRC35450",
  "TaskName": "cardgame",
  "TotalReadoutTime": 0.0314901,
  "TxRefAmp": 414.334,
  "dcmmeta_affine": [
    [-3.0, 0.0, 0.0, 100.6440658569336],
    [0.0, 2.9776384830474854, -0.3656080365180969, -65.42324829101562],
    [0.0, 0.3656080365180969, 2.9776384830474854, -66.88560485839844],
    [0.0, 0.0, 0.0, 1.0]
],
  "dcmmeta_reorient_transform": [
    [0.0, -1.0, 0.0, 67.0],
    [1.0, 0.0, 0.0, 0.0],
    [0.0, 0.0, 1.0, 0.0],
    [0.0, 0.0, 0.0, 1.0]
],
  "dcmmeta_shape": [68, 68, 36, 258],
  "dcmmeta_slice_dim": 2,
  "dcmmeta_version": 0.6,
  "global": {
    "const": {
      "AcquisitionMatrix": [68, 0, 0, 68],
      "AngioFlag": "N",
      "BitsAllocated": 16,
      "BitsStored": 12,
      "Columns": 408,
      "EchoNumbers": 1,
      "EchoTime": 23.0,
      "EchoTrainLength": 1,
      "FlipAngle": 76.0,
      "HighBit": 11,
      "ImageOrientationPatient": [1.0, 0.0, 0.0, 0.0, 0.99254615167353, -0.1218693431428],
      "ImagePositionPatient": [-610.64406776428, -640.27706242064, 19.763500436267],
      "ImageType": [
        "ORIGINAL",
        "PRIMARY",
        "M",
        "ND",
        "MOSAIC"
],
      "ImagedNucleus": "1H",
      "ImagingFrequency": 123.218482,
      "InPlanePhaseEncodingDirection": "COL",
      "MRAcquisitionType": "2D",
      "MagneticFieldStrength": 3.0,
      "Manufacturer": "SIEMENS",
      "ManufacturerModelName": "TrioTim",
      "Modality": "MR",
      "NumberOfAverages": 1.0,
      "NumberOfPhaseEncodingSteps": 68,
      "PercentPhaseFieldOfView": 100.0,
      "PercentSampling": 100.0,
      "PerformedProcedureStepStartTime": "110911.937000",
      "PhotometricInterpretation": "MONOCHROME2",
      "PixelBandwidth": 2451.0,
      "PixelRepresentation": 0,
      "PixelSpacing": [3.0, 3.0],
      "ProtocolName": "ep2d_bold_CardGameEPI_2",
      "RepetitionTime": 2000.0,
      "Rows": 408,
      "SAR": 0.18694499267353,
      "SamplesPerPixel": 1,
      "ScanOptions": "FS",
      "ScanningSequence": "EP",
      "SequenceName": "*epfid2d1_68",
      "SequenceVariant": "SK",
      "SeriesDescription": "ep2d_bold_CardGameEPI_2",
      "SeriesNumber": 8,
      "SeriesTime": "115101.562000",
      "SliceLocation": -58.413958725002,
      "SliceThickness": 2.5,
      "SmallestImagePixelValue": 0,
      "SoftwareVersions": "syngo MR B19",
      "SpacingBetweenSlices": 3.000000003625,
      "SpecificCharacterSet": "ISO_IR 100",
      "StudyID": "1",
      "StudyTime": "110911.828000",
      "TransmitCoilName": "Body",
      "VariableFlipAngleFlag": "N",
      "WindowCenterWidthExplanation": "Algo1",
      "dBdt": 0.0},
    "slices": {}
  },
  "time": {
    "samples": {
      "AcquisitionNumber": [1, 2, 3, 4, 5, 6, 7, 8, 9, 10, 11, 12, 13, 14, 15, 16, 17, 18, 19, 20, 21, 22, 23, 24, 25, 26, 27, 28, 29, 30, 31, 32, 33, 34, 35, 36, 37, 38, 39, 40, 41, 42, 43, 44, 45, 46, 47, 48, 49, 50, 51, 52, 53, 54, 55, 56, 57, 58, 59, 60, 61, 62, 63, 64, 65, 66, 67, 68, 69, 70, 71, 72, 73, 74, 75, 76, 77, 78, 79, 80, 81, 82, 83, 84, 85, 86, 87, 88, 89, 90, 91, 92, 93, 94, 95, 96, 97, 98, 99, 100, 101, 102, 103, 104, 105, 106, 107, 108, 109, 110, 111, 112, 113, 114, 115, 116, 117, 118, 119, 120, 121, 122, 123, 124, 125, 126, 127, 128, 129, 130, 131, 132, 133, 134, 135, 136, 137, 138, 139, 140, 141, 142, 143, 144, 145, 146, 147, 148, 149, 150, 151, 152, 153, 154, 155, 156, 157, 158, 159, 160, 161, 162, 163, 164, 165, 166, 167, 168, 169, 170, 171, 172, 173, 174, 175, 176, 177, 178, 179, 180, 181, 182, 183, 184, 185, 186, 187, 188, 189, 190, 191, 192, 193, 194, 195, 196, 197, 198, 199, 200, 201, 202, 203, 204, 205, 206, 207, 208, 209, 210, 211, 212, 213, 214, 215, 216, 217, 218, 219, 220, 221, 222, 223, 224, 225, 226, 227, 228, 229, 230, 231, 232, 233, 234, 235, 236, 237, 238, 239, 240, 241, 242, 243, 244, 245, 246, 247, 248, 249, 250, 251, 252, 253, 254, 255, 256, 257, 258],
      "AcquisitionTime": ["115006.985000", "115008.992500", "115011.002500", "115013.010000", "115015.017500", "115017.025000", "115019.032500", "115021.042500", "115023.050000", "115025.057500", "115027.065000", "115029.072500", "115031.082500", "115033.090000", "115035.097500", "115037.105000", "115039.115000", "115041.122500", "115043.130000", "115045.137500", "115047.145000", "115049.155000", "115051.162500", "115053.170000", "115055.177500", "115057.185000", "115059.195000", "115101.202500", "115103.210000", "115105.217500", "115107.227500", "115109.235000", "115111.242500", "115113.250000", "115115.257500", "115117.267500", "115119.275000", "115121.282500", "115123.290000", "115125.297500", "115127.307500", "115129.315000", "115131.322500", "115133.330000", "115135.337500", "115137.347500", "115139.355000", "115141.362500", "115143.370000", "115145.380000", "115147.387500", "115149.395000", "115151.402500", "115153.410000", "115155.420000", "115157.427500", "115159.435000", "115201.442500", "115203.450000", "115205.460000", "115207.467500", "115209.475000", "115211.482500", "115213.492500", "115215.500000", "115217.507500", "115219.515000", "115221.522500", "115223.532500", "115225.540000", "115227.547500", "115229.555000", "115231.562500", "115233.572500", "115235.580000", "115237.587500", "115239.595000", "115241.605000", "115243.612500", "115245.620000", "115247.627500", "115249.635000", "115251.645000", "115253.652500", "115255.660000", "115257.667500", "115259.675000", "115301.685000", "115303.692500", "115305.700000", "115307.707500", "115309.715000", "115311.725000", "115313.732500", "115315.740000", "115317.747500", "115319.757500", "115321.765000", "115323.772500", "115325.780000", "115327.787500", "115329.797500", "115331.805000", "115333.812500", "115335.820000", "115337.827500", "115339.837500", "115341.845000", "115343.852500", "115345.860000", "115347.870000", "115349.877500", "115351.885000", "115353.892500", "115355.900000", "115357.910000", "115359.917500", "115401.925000", "115403.932500", "115405.940000", "115407.950000", "115409.957500", "115411.965000", "115413.972500", "115415.982500", "115417.990000", "115419.997500", "115422.005000", "115424.012500", "115426.022500", "115428.030000", "115430.037500", "115432.045000", "115434.052500", "115436.062500", "115438.070000", "115440.077500", "115442.085000", "115444.092500", "115446.102500", "115448.110000", "115450.117500", "115452.125000", "115454.135000", "115456.142500", "115458.150000", "115500.157500", "115502.165000", "115504.175000", "115506.182500", "115508.190000", "115510.197500", "115512.205000", "115514.215000", "115516.222500", "115518.230000", "115520.237500", "115522.247500", "115524.255000", "115526.262500", "115528.270000", "115530.277500", "115532.287500", "115534.295000", "115536.302500", "115538.310000", "115540.317500", "115542.327500", "115544.335000", "115546.342500", "115548.350000", "115550.360000", "115552.367500", "115554.375000", "115556.382500", "115558.390000", "115600.400000", "115602.407500", "115604.415000", "115606.422500", "115608.430000", "115610.440000", "115612.447500", "115614.455000", "115616.462500", "115618.470000", "115620.480000", "115622.487500", "115624.495000", "115626.502500", "115628.512500", "115630.520000", "115632.527500", "115634.535000", "115636.542500", "115638.552500", "115640.560000", "115642.567500", "115644.575000", "115646.582500", "115648.592500", "115650.600000", "115652.607500", "115654.615000", "115656.625000", "115658.632500", "115700.640000", "115702.647500", "115704.655000", "115706.665000", "115708.672500", "115710.680000", "115712.687500", "115714.695000", "115716.705000", "115718.712500", "115720.720000", "115722.727500", "115724.737500", "115726.745000", "115728.752500", "115730.760000", "115732.767500", "115734.777500", "115736.785000", "115738.792500", "115740.800000", "115742.807500", "115744.817500", "115746.825000", "115748.832500", "115750.840000", "115752.847500", "115754.857500", "115756.865000", "115758.872500", "115800.880000", "115802.890000", "115804.897500", "115806.905000", "115808.912500", "115810.920000", "115812.930000", "115814.937500", "115816.945000", "115818.952500", "115820.960000", "115822.970000", "115824.977500", "115826.985000", "115828.992500", "115831.002500", "115833.010000", "115835.017500", "115837.025000", "115839.032500", "115841.042500", "115843.050000"],
      "ContentTime": ["115101.562000", "115101.562000", "115101.562000", "115101.562000", "115101.578000", "115101.578000", "115101.578000", "115101.578000", "115101.578000", "115101.578000", "115101.578000", "115101.578000", "115101.593000", "115101.593000", "115101.593000", "115101.593000", "115101.593000", "115101.593000", "115101.593000", "115101.609000", "115101.609000", "115101.609000", "115101.609000", "115101.609000", "115101.609000", "115101.625000", "115101.625000", "115141.562000", "115141.562000", "115141.562000", "115141.562000", "115141.562000", "115141.562000", "115141.578000", "115141.578000", "115141.578000", "115141.578000", "115141.578000", "115141.578000", "115141.578000", "115141.578000", "115141.593000", "115141.593000", "115141.593000", "115141.593000", "115141.593000", "115141.593000", "115221.562000", "115221.562000", "115221.562000", "115221.562000", "115221.562000", "115221.562000", "115221.578000", "115221.578000", "115221.578000", "115221.578000", "115221.578000", "115221.578000", "115221.578000", "115221.593000", "115221.593000", "115221.593000", "115221.593000", "115221.593000", "115221.593000", "115221.593000", "115301.562000", "115301.562000", "115301.562000", "115301.562000", "115301.562000", "115301.562000", "115301.578000", "115301.578000", "115301.578000", "115301.578000", "115301.578000", "115301.578000", "115301.578000", "115301.578000", "115301.593000", "115301.593000", "115301.593000", "115301.593000", "115301.593000", "115301.593000", "115341.562000", "115341.562000", "115341.562000", "115341.562000", "115341.562000", "115341.578000", "115341.593000", "115341.593000", "115341.593000", "115341.593000", "115341.593000", "115341.593000", "115341.593000", "115341.593000", "115341.609000", "115341.609000", "115341.609000", "115341.609000", "115341.609000", "115341.609000", "115421.562000", "115421.562000", "115421.562000", "115421.562000", "115421.562000", "115421.562000", "115421.578000", "115421.578000", "115421.578000", "115421.578000", "115421.578000", "115421.578000", "115421.578000", "115421.593000", "115421.593000", "115421.593000", "115421.593000", "115421.593000", "115421.593000", "115421.593000", "115501.562000", "115501.562000", "115501.562000", "115501.562000", "115501.562000", "115501.562000", "115501.578000", "115501.578000", "115501.578000", "115501.578000", "115501.578000", "115501.578000", "115501.578000", "115501.578000", "115501.593000", "115501.593000", "115501.593000", "115501.593000", "115501.593000", "115501.593000", "115541.562000", "115541.562000", "115541.562000", "115541.562000", "115541.562000", "115541.562000", "115541.578000", "115541.578000", "115541.578000", "115541.578000", "115541.578000", "115541.578000", "115541.578000", "115541.578000", "115541.593000", "115541.593000", "115541.593000", "115541.593000", "115541.593000", "115541.593000", "115621.562000", "115621.562000", "115621.562000", "115621.562000", "115621.562000", "115621.562000", "115621.578000", "115621.578000", "115621.578000", "115621.578000", "115621.578000", "115621.578000", "115621.578000", "115621.593000", "115621.593000", "115621.593000", "115621.593000", "115621.593000", "115621.593000", "115621.593000", "115701.562000", "115701.562000", "115701.562000", "115701.562000", "115701.562000", "115701.562000", "115701.578000", "115701.578000", "115701.578000", "115701.578000", "115701.578000", "115701.578000", "115701.578000", "115701.593000", "115701.593000", "115701.593000", "115701.593000", "115701.593000", "115701.593000", "115701.593000", "115721.562000", "115721.562000", "115721.562000", "115721.562000", "115721.562000", "115721.562000", "115721.578000", "115721.578000", "115721.578000", "115721.578000", "115801.562000", "115801.562000", "115801.562000", "115801.562000", "115801.562000", "115801.562000", "115801.578000", "115801.578000", "115801.578000", "115801.578000", "115801.578000", "115801.578000", "115801.578000", "115801.593000", "115801.593000", "115801.593000", "115801.593000", "115801.593000", "115801.593000", "115801.593000", "115841.562000", "115841.562000", "115841.562000", "115841.562000", "115841.562000", "115841.562000", "115841.578000", "115841.578000", "115841.578000", "115841.578000", "115841.578000", "115841.578000", "115841.578000", "115841.593000", "115841.593000", "115841.593000", "115841.593000", "115841.593000", "115841.593000", "115841.593000", "115842.109000"],
      "InstanceCreationTime": ["115101.562000", "115101.562000", "115101.562000", "115101.562000", "115101.578000", "115101.578000", "115101.578000", "115101.578000", "115101.578000", "115101.578000", "115101.578000", "115101.578000", "115101.593000", "115101.593000", "115101.593000", "115101.593000", "115101.593000", "115101.593000", "115101.593000", "115101.609000", "115101.609000", "115101.609000", "115101.609000", "115101.609000", "115101.609000", "115101.625000", "115101.625000", "115141.562000", "115141.562000", "115141.562000", "115141.562000", "115141.562000", "115141.562000", "115141.578000", "115141.578000", "115141.578000", "115141.578000", "115141.578000", "115141.578000", "115141.578000", "115141.578000", "115141.593000", "115141.593000", "115141.593000", "115141.593000", "115141.593000", "115141.593000", "115221.562000", "115221.562000", "115221.562000", "115221.562000", "115221.562000", "115221.562000", "115221.578000", "115221.578000", "115221.578000", "115221.578000", "115221.578000", "115221.578000", "115221.578000", "115221.593000", "115221.593000", "115221.593000", "115221.593000", "115221.593000", "115221.593000", "115221.593000", "115301.562000", "115301.562000", "115301.562000", "115301.562000", "115301.562000", "115301.562000", "115301.578000", "115301.578000", "115301.578000", "115301.578000", "115301.578000", "115301.578000", "115301.578000", "115301.578000", "115301.593000", "115301.593000", "115301.593000", "115301.593000", "115301.593000", "115301.593000", "115341.562000", "115341.562000", "115341.562000", "115341.562000", "115341.562000", "115341.578000", "115341.593000", "115341.593000", "115341.593000", "115341.593000", "115341.593000", "115341.593000", "115341.593000", "115341.593000", "115341.609000", "115341.609000", "115341.609000", "115341.609000", "115341.609000", "115341.609000", "115421.562000", "115421.562000", "115421.562000", "115421.562000", "115421.562000", "115421.562000", "115421.578000", "115421.578000", "115421.578000", "115421.578000", "115421.578000", "115421.578000", "115421.578000", "115421.593000", "115421.593000", "115421.593000", "115421.593000", "115421.593000", "115421.593000", "115421.593000", "115501.562000", "115501.562000", "115501.562000", "115501.562000", "115501.562000", "115501.562000", "115501.578000", "115501.578000", "115501.578000", "115501.578000", "115501.578000", "115501.578000", "115501.578000", "115501.578000", "115501.593000", "115501.593000", "115501.593000", "115501.593000", "115501.593000", "115501.593000", "115541.562000", "115541.562000", "115541.562000", "115541.562000", "115541.562000", "115541.562000", "115541.578000", "115541.578000", "115541.578000", "115541.578000", "115541.578000", "115541.578000", "115541.578000", "115541.578000", "115541.593000", "115541.593000", "115541.593000", "115541.593000", "115541.593000", "115541.593000", "115621.562000", "115621.562000", "115621.562000", "115621.562000", "115621.562000", "115621.562000", "115621.578000", "115621.578000", "115621.578000", "115621.578000", "115621.578000", "115621.578000", "115621.578000", "115621.593000", "115621.593000", "115621.593000", "115621.593000", "115621.593000", "115621.593000", "115621.593000", "115701.562000", "115701.562000", "115701.562000", "115701.562000", "115701.562000", "115701.562000", "115701.578000", "115701.578000", "115701.578000", "115701.578000", "115701.578000", "115701.578000", "115701.578000", "115701.593000", "115701.593000", "115701.593000", "115701.593000", "115701.593000", "115701.593000", "115701.593000", "115721.562000", "115721.562000", "115721.562000", "115721.562000", "115721.562000", "115721.562000", "115721.578000", "115721.578000", "115721.578000", "115721.578000", "115801.562000", "115801.562000", "115801.562000", "115801.562000", "115801.562000", "115801.562000", "115801.578000", "115801.578000", "115801.578000", "115801.578000", "115801.578000", "115801.578000", "115801.578000", "115801.593000", "115801.593000", "115801.593000", "115801.593000", "115801.593000", "115801.593000", "115801.593000", "115841.562000", "115841.562000", "115841.562000", "115841.562000", "115841.562000", "115841.562000", "115841.578000", "115841.578000", "115841.578000", "115841.578000", "115841.578000", "115841.578000", "115841.578000", "115841.593000", "115841.593000", "115841.593000", "115841.593000", "115841.593000", "115841.593000", "115841.593000", "115842.109000"],
      "InstanceNumber": [1, 2, 3, 4, 5, 6, 7, 8, 9, 10, 11, 12, 13, 14, 15, 16, 17, 18, 19, 20, 21, 22, 23, 24, 25, 26, 27, 28, 29, 30, 31, 32, 33, 34, 35, 36, 37, 38, 39, 40, 41, 42, 43, 44, 45, 46, 47, 48, 49, 50, 51, 52, 53, 54, 55, 56, 57, 58, 59, 60, 61, 62, 63, 64, 65, 66, 67, 68, 69, 70, 71, 72, 73, 74, 75, 76, 77, 78, 79, 80, 81, 82, 83, 84, 85, 86, 87, 88, 89, 90, 91, 92, 93, 94, 95, 96, 97, 98, 99, 100, 101, 102, 103, 104, 105, 106, 107, 108, 109, 110, 111, 112, 113, 114, 115, 116, 117, 118, 119, 120, 121, 122, 123, 124, 125, 126, 127, 128, 129, 130, 131, 132, 133, 134, 135, 136, 137, 138, 139, 140, 141, 142, 143, 144, 145, 146, 147, 148, 149, 150, 151, 152, 153, 154, 155, 156, 157, 158, 159, 160, 161, 162, 163, 164, 165, 166, 167, 168, 169, 170, 171, 172, 173, 174, 175, 176, 177, 178, 179, 180, 181, 182, 183, 184, 185, 186, 187, 188, 189, 190, 191, 192, 193, 194, 195, 196, 197, 198, 199, 200, 201, 202, 203, 204, 205, 206, 207, 208, 209, 210, 211, 212, 213, 214, 215, 216, 217, 218, 219, 220, 221, 222, 223, 224, 225, 226, 227, 228, 229, 230, 231, 232, 233, 234, 235, 236, 237, 238, 239, 240, 241, 242, 243, 244, 245, 246, 247, 248, 249, 250, 251, 252, 253, 254, 255, 256, 257, 258],
      "LargestImagePixelValue": [1927, 1837, 1770, 1798, 1759, 1784, 1784, 1772, 1754, 1729, 1756, 1769, 1763, 1771, 1776, 1741, 1754, 1727, 1748, 1731, 1735, 1752, 1763, 1754, 1765, 1741, 1809, 1824, 1793, 1760, 1775, 1759, 1769, 1791, 1784, 1781, 1783, 1802, 1785, 1781, 1787, 1797, 1784, 1816, 1801, 1784, 1797, 1799, 1796, 1776, 1796, 1784, 1790, 1778, 1816, 1795, 1816, 1856, 1794, 1780, 1780, 1774, 1757, 1772, 1784, 1762, 1787, 1814, 1805, 1791, 1814, 1809, 1817, 1799, 1836, 1823, 1813, 1813, 1809, 1794, 1794, 1805, 1805, 1806, 1836, 1829, 1827, 1813, 1763, 1786, 1781, 1795, 1789, 1780, 1784, 1803, 1782, 1783, 1816, 1794, 1820, 1794, 1789, 1787, 1811, 1790, 1792, 1799, 1796, 1811, 1828, 1791, 1833, 1816, 1817, 1797, 1816, 1819, 1798, 1816, 1811, 1782, 1782, 1767, 1776, 1862, 1830, 1783, 1779, 1785, 1767, 1746, 1781, 1790, 1791, 1786, 1799, 1808, 1923, 1827, 1818, 1827, 2413, 1823, 1853, 1866, 1834, 1846, 1807, 1831, 1810, 1825, 1803, 1812, 1827, 1790, 1805, 1810, 1791, 1803, 1835, 1810, 1799, 1817, 1829, 1836, 1838, 1839, 1852, 1858, 1838, 1834, 1838, 1860, 1860, 1834, 1855, 1801, 1814, 1827, 1797, 1840, 1822, 1825, 1809, 1797, 1830, 1824, 1814, 1814, 1826, 1835, 1819, 1786, 1806, 1800, 1818, 1798, 1806, 1795, 1816, 1825, 1815, 1833, 1832, 1791, 1801, 1968, 1873, 1850, 1836, 1864, 1816, 1859, 1850, 1827, 1816, 1800, 1806, 1800, 1798, 1856, 1912, 1845, 1816, 1853, 1830, 1842, 1842, 1831, 1841, 1804, 1817, 1777, 1798, 1845, 1832, 1868, 1847, 1853, 1797, 1807, 1807, 1847, 1841, 1822, 1843, 1832, 1843, 1843, 1771, 1783, 1772, 1784, 1833, 1773, 1774, 1772],
      "WindowCenter": [772.0, 769.0, 769.0, 769.0, 769.0, 769.0, 770.0, 770.0, 769.0, 768.0, 768.0, 768.0, 769.0, 768.0, 768.0, 768.0, 769.0, 768.0, 769.0, 770.0, 771.0, 770.0, 770.0, 770.0, 770.0, 770.0, 772.0, 772.0, 772.0, 771.0, 770.0, 770.0, 770.0, 771.0, 771.0, 770.0, 771.0, 770.0, 769.0, 770.0, 771.0, 770.0, 770.0, 770.0, 770.0, 770.0, 771.0, 771.0, 772.0, 772.0, 773.0, 773.0, 774.0, 773.0, 774.0, 772.0, 772.0, 773.0, 772.0, 772.0, 772.0, 771.0, 769.0, 771.0, 771.0, 771.0, 771.0, 771.0, 771.0, 771.0, 772.0, 773.0, 773.0, 773.0, 774.0, 773.0, 773.0, 772.0, 772.0, 771.0, 772.0, 772.0, 773.0, 772.0, 773.0, 774.0, 776.0, 775.0, 772.0, 773.0, 773.0, 773.0, 773.0, 772.0, 773.0, 771.0, 772.0, 771.0, 772.0, 772.0, 773.0, 772.0, 772.0, 772.0, 773.0, 773.0, 772.0, 772.0, 772.0, 773.0, 774.0, 774.0, 774.0, 774.0, 774.0, 774.0, 774.0, 773.0, 775.0, 775.0, 775.0, 775.0, 773.0, 773.0, 774.0, 776.0, 775.0, 773.0, 772.0, 770.0, 770.0, 770.0, 772.0, 773.0, 773.0, 773.0, 773.0, 773.0, 774.0, 774.0, 775.0, 775.0, 778.0, 776.0, 776.0, 777.0, 777.0, 777.0, 776.0, 776.0, 775.0, 774.0, 776.0, 774.0, 775.0, 775.0, 774.0, 773.0, 773.0, 773.0, 774.0, 774.0, 774.0, 775.0, 775.0, 775.0, 776.0, 776.0, 776.0, 777.0, 776.0, 777.0, 776.0, 776.0, 776.0, 776.0, 777.0, 776.0, 776.0, 776.0, 776.0, 777.0, 775.0, 775.0, 775.0, 774.0, 774.0, 775.0, 774.0, 775.0, 775.0, 776.0, 775.0, 774.0, 775.0, 775.0, 775.0, 775.0, 775.0, 776.0, 776.0, 776.0, 776.0, 777.0, 776.0, 776.0, 776.0, 778.0, 778.0, 778.0, 777.0, 776.0, 775.0, 775.0, 775.0, 777.0, 775.0, 776.0, 774.0, 775.0, 775.0, 774.0, 775.0, 775.0, 775.0, 775.0, 776.0, 776.0, 776.0, 777.0, 777.0, 776.0, 777.0, 776.0, 777.0, 776.0, 777.0, 779.0, 779.0, 778.0, 777.0, 776.0, 777.0, 775.0, 776.0, 775.0, 775.0, 776.0, 776.0, 776.0, 775.0, 775.0, 777.0, 776.0, 776.0, 776.0, 777.0, 777.0],
      "WindowWidth": [1614.0, 1606.0, 1606.0, 1605.0, 1604.0, 1606.0, 1608.0, 1608.0, 1604.0, 1602.0, 1604.0, 1604.0, 1605.0, 1604.0, 1604.0, 1604.0, 1605.0, 1604.0, 1606.0, 1609.0, 1609.0, 1608.0, 1607.0, 1607.0, 1607.0, 1608.0, 1613.0, 1611.0, 1611.0, 1609.0, 1608.0, 1608.0, 1607.0, 1611.0, 1609.0, 1608.0, 1609.0, 1608.0, 1606.0, 1608.0, 1609.0, 1607.0, 1607.0, 1608.0, 1608.0, 1608.0, 1609.0, 1610.0, 1613.0, 1613.0, 1613.0, 1614.0, 1617.0, 1614.0, 1616.0, 1612.0, 1613.0, 1614.0, 1613.0, 1612.0, 1611.0, 1609.0, 1605.0, 1609.0, 1610.0, 1608.0, 1609.0, 1610.0, 1610.0, 1610.0, 1611.0, 1613.0, 1615.0, 1615.0, 1616.0, 1615.0, 1615.0, 1612.0, 1612.0, 1610.0, 1611.0, 1612.0, 1613.0, 1613.0, 1615.0, 1618.0, 1623.0, 1620.0, 1611.0, 1613.0, 1614.0, 1615.0, 1613.0, 1613.0, 1613.0, 1611.0, 1611.0, 1609.0, 1612.0, 1612.0, 1614.0, 1612.0, 1611.0, 1612.0, 1613.0, 1613.0, 1613.0, 1612.0, 1613.0, 1614.0, 1616.0, 1615.0, 1617.0, 1616.0, 1617.0, 1616.0, 1616.0, 1614.0, 1619.0, 1620.0, 1620.0, 1618.0, 1614.0, 1614.0, 1618.0, 1622.0, 1619.0, 1613.0, 1610.0, 1607.0, 1606.0, 1606.0, 1611.0, 1613.0, 1615.0, 1614.0, 1615.0, 1614.0, 1618.0, 1616.0, 1618.0, 1618.0, 1629.0, 1621.0, 1622.0, 1624.0, 1623.0, 1624.0, 1621.0, 1621.0, 1618.0, 1617.0, 1621.0, 1616.0, 1619.0, 1618.0, 1616.0, 1613.0, 1613.0, 1614.0, 1616.0, 1615.0, 1616.0, 1618.0, 1618.0, 1619.0, 1620.0, 1621.0, 1621.0, 1623.0, 1621.0, 1623.0, 1621.0, 1622.0, 1621.0, 1621.0, 1623.0, 1621.0, 1621.0, 1621.0, 1622.0, 1623.0, 1619.0, 1619.0, 1618.0, 1615.0, 1617.0, 1617.0, 1617.0, 1618.0, 1618.0, 1620.0, 1618.0, 1616.0, 1618.0, 1619.0, 1620.0, 1619.0, 1619.0, 1620.0, 1621.0, 1621.0, 1621.0, 1623.0, 1621.0, 1620.0, 1622.0, 1627.0, 1627.0, 1627.0, 1625.0, 1622.0, 1620.0, 1620.0, 1620.0, 1622.0, 1620.0, 1621.0, 1617.0, 1620.0, 1618.0, 1616.0, 1618.0, 1618.0, 1619.0, 1620.0, 1621.0, 1621.0, 1621.0, 1623.0, 1624.0, 1622.0, 1623.0, 1621.0, 1623.0, 1622.0, 1624.0, 1628.0, 1628.0, 1626.0, 1623.0, 1622.0, 1623.0, 1620.0, 1622.0, 1620.0, 1619.0, 1620.0, 1622.0, 1620.0, 1619.0, 1619.0, 1623.0, 1622.0, 1622.0, 1622.0, 1623.0, 1623.0]
    },
    "slices": {}
  }
}