{
  "AcquisitionMatrixPE": 68,
  "AcquisitionNumber": 1,
  "AcquisitionTime": "12:28:42.180000",
  "BandwidthPerPixelPhaseEncode": 31.289,
  "BaseResolution": 68,
  "CoilString": "C:HEA;HEP",
  "ConversionSoftware": "dcm2niix",
  "ConversionSoftwareVersion": "v1.0.20190902",
  "DerivedVendorReportedEchoSpacing": 0.000470002,
  "DeviceSerialNumber": "35450",
  "DwellTime": 3e-06,
  "EchoTime": 0.023,
  "EffectiveEchoSpacing": 0.000470002,
  "FlipAngle": 76,
  "ImageOrientationPatientDICOM": [1, 0, 0, 0, 0.992546, -0.121869],
  "ImageType": [
    "ORIGINAL",
    "PRIMARY",
    "M",
    "ND",
    "MOSAIC"
],
  "ImagingFrequency": 123.219,
  "InPlanePhaseEncodingDirectionDICOM": "COL",
  "InstitutionAddress": "Univeristy_Ave._197_Newark_North_East_US_07102-1814",
  "InstitutionName": "RUBIC",
  "InstitutionalDepartmentName": "Department",
  "MRAcquisitionType": "2D",
  "MagneticFieldStrength": 3,
  "Manufacturer": "Siemens",
  "ManufacturersModelName": "TrioTim",
  "Modality": "MR",
  "PartialFourier": 1,
  "PatientPosition": "HFS",
  "PercentPhaseFOV": 100,
  "PhaseEncodingDirection": "j-",
  "PhaseEncodingSteps": 68,
  "PhaseResolution": 1,
  "PixelBandwidth": 2451,
  "ProcedureStepDescription": "Krekelberg_David",
  "ProtocolName": "ep2d_bold_CardGameEPI_3",
  "PulseSequenceDetails": "%SiemensSeq%_ep2d_bold",
  "ReceiveCoilName": "HeadMatrix",
  "ReconMatrixPE": 68,
  "RepetitionTime": 2,
  "SAR": 0.186945,
  "ScanOptions": "FS",
  "ScanningSequence": "EP",
  "SequenceName": "_epfid2d1_68",
  "SequenceVariant": "SK",
  "SeriesDescription": "ep2d_bold_CardGameEPI_3",
  "SeriesNumber": 12,
  "ShimSetting": [1960, -584, -7540, 678, -65, -338, -370, -115],
  "SliceThickness": 2.5,
  "SliceTiming": [1.9525, 1.8975, 1.8425, 1.785, 1.73, 1.675, 1.6175, 1.5625, 1.5075, 1.45, 1.395, 1.34, 1.2825, 1.2275, 1.1725, 1.1175, 1.06, 1.005, 0.95, 0.8925, 0.8375, 0.7825, 0.725, 0.67, 0.615, 0.56, 0.5025, 0.4475, 0.3925, 0.335, 0.28, 0.225, 0.1675, 0.1125, 0.0575, 0],
  "SoftwareVersions": "syngo_MR_B19",
  "SpacingBetweenSlices": 3,
  "StationName": "MRC35450",
  "TaskName": "cardgame",
  "TotalReadoutTime": 0.0314901,
  "TxRefAmp": 414.334,
  "dcmmeta_affine": [
    [-3.0, 0.0, 0.0, 100.6440658569336],
    [0.0, 2.9776384830474854, -0.3656080365180969, -65.42324829101562],
    [0.0, 0.3656080365180969, 2.9776384830474854, -66.88560485839844],
    [0.0, 0.0, 0.0, 1.0]
],
  "dcmmeta_reorient_transform": [
    [0.0, -1.0, 0.0, 67.0],
    [1.0, 0.0, 0.0, 0.0],
    [0.0, 0.0, 1.0, 0.0],
    [0.0, 0.0, 0.0, 1.0]
],
  "dcmmeta_shape": [68, 68, 36, 258],
  "dcmmeta_slice_dim": 2,
  "dcmmeta_version": 0.6,
  "global": {
    "const": {
      "AcquisitionMatrix": [68, 0, 0, 68],
      "AngioFlag": "N",
      "BitsAllocated": 16,
      "BitsStored": 12,
      "Columns": 408,
      "EchoNumbers": 1,
      "EchoTime": 23.0,
      "EchoTrainLength": 1,
      "FlipAngle": 76.0,
      "HighBit": 11,
      "ImageOrientationPatient": [1.0, 0.0, 0.0, 0.0, 0.99254615167353, -0.1218693431428],
      "ImagePositionPatient": [-610.64406776428, -640.27706242064, 19.763500436267],
      "ImageType": [
        "ORIGINAL",
        "PRIMARY",
        "M",
        "ND",
        "MOSAIC"
],
      "ImagedNucleus": "1H",
      "ImagingFrequency": 123.218548,
      "InPlanePhaseEncodingDirection": "COL",
      "MRAcquisitionType": "2D",
      "MagneticFieldStrength": 3.0,
      "Manufacturer": "SIEMENS",
      "ManufacturerModelName": "TrioTim",
      "Modality": "MR",
      "NumberOfAverages": 1.0,
      "NumberOfPhaseEncodingSteps": 68,
      "PercentPhaseFieldOfView": 100.0,
      "PercentSampling": 100.0,
      "PerformedProcedureStepStartTime": "110911.937000",
      "PhotometricInterpretation": "MONOCHROME2",
      "PixelBandwidth": 2451.0,
      "PixelRepresentation": 0,
      "PixelSpacing": [3.0, 3.0],
      "ProtocolName": "ep2d_bold_CardGameEPI_3",
      "RepetitionTime": 2000.0,
      "Rows": 408,
      "SAR": 0.18694499267353,
      "SamplesPerPixel": 1,
      "ScanOptions": "FS",
      "ScanningSequence": "EP",
      "SequenceName": "*epfid2d1_68",
      "SequenceVariant": "SK",
      "SeriesDescription": "ep2d_bold_CardGameEPI_3",
      "SeriesNumber": 12,
      "SeriesTime": "122921.578000",
      "SliceLocation": -58.413958725002,
      "SliceThickness": 2.5,
      "SmallestImagePixelValue": 0,
      "SoftwareVersions": "syngo MR B19",
      "SpacingBetweenSlices": 3.000000003625,
      "SpecificCharacterSet": "ISO_IR 100",
      "StudyID": "1",
      "StudyTime": "110911.828000",
      "TransmitCoilName": "Body",
      "VariableFlipAngleFlag": "N",
      "WindowCenterWidthExplanation": "Algo1",
      "dBdt": 0.0},
    "slices": {}
  },
  "time": {
    "samples": {
      "AcquisitionNumber": [1, 2, 3, 4, 5, 6, 7, 8, 9, 10, 11, 12, 13, 14, 15, 16, 17, 18, 19, 20, 21, 22, 23, 24, 25, 26, 27, 28, 29, 30, 31, 32, 33, 34, 35, 36, 37, 38, 39, 40, 41, 42, 43, 44, 45, 46, 47, 48, 49, 50, 51, 52, 53, 54, 55, 56, 57, 58, 59, 60, 61, 62, 63, 64, 65, 66, 67, 68, 69, 70, 71, 72, 73, 74, 75, 76, 77, 78, 79, 80, 81, 82, 83, 84, 85, 86, 87, 88, 89, 90, 91, 92, 93, 94, 95, 96, 97, 98, 99, 100, 101, 102, 103, 104, 105, 106, 107, 108, 109, 110, 111, 112, 113, 114, 115, 116, 117, 118, 119, 120, 121, 122, 123, 124, 125, 126, 127, 128, 129, 130, 131, 132, 133, 134, 135, 136, 137, 138, 139, 140, 141, 142, 143, 144, 145, 146, 147, 148, 149, 150, 151, 152, 153, 154, 155, 156, 157, 158, 159, 160, 161, 162, 163, 164, 165, 166, 167, 168, 169, 170, 171, 172, 173, 174, 175, 176, 177, 178, 179, 180, 181, 182, 183, 184, 185, 186, 187, 188, 189, 190, 191, 192, 193, 194, 195, 196, 197, 198, 199, 200, 201, 202, 203, 204, 205, 206, 207, 208, 209, 210, 211, 212, 213, 214, 215, 216, 217, 218, 219, 220, 221, 222, 223, 224, 225, 226, 227, 228, 229, 230, 231, 232, 233, 234, 235, 236, 237, 238, 239, 240, 241, 242, 243, 244, 245, 246, 247, 248, 249, 250, 251, 252, 253, 254, 255, 256, 257, 258],
      "AcquisitionTime": ["122842.180000", "122844.187500", "122846.197500", "122848.205000", "122850.212500", "122852.220000", "122854.227500", "122856.237500", "122858.245000", "122900.252500", "122902.260000", "122904.267500", "122906.277500", "122908.285000", "122910.292500", "122912.300000", "122914.310000", "122916.317500", "122918.325000", "122920.332500", "122922.340000", "122924.350000", "122926.357500", "122928.365000", "122930.372500", "122932.380000", "122934.390000", "122936.397500", "122938.405000", "122940.412500", "122942.422500", "122944.430000", "122946.437500", "122948.445000", "122950.452500", "122952.462500", "122954.470000", "122956.477500", "122958.485000", "123000.492500", "123002.502500", "123004.510000", "123006.517500", "123008.525000", "123010.535000", "123012.542500", "123014.550000", "123016.557500", "123018.565000", "123020.575000", "123022.582500", "123024.590000", "123026.597500", "123028.605000", "123030.615000", "123032.622500", "123034.630000", "123036.637500", "123038.645000", "123040.655000", "123042.662500", "123044.670000", "123046.677500", "123048.687500", "123050.695000", "123052.702500", "123054.710000", "123056.717500", "123058.727500", "123100.735000", "123102.742500", "123104.750000", "123106.757500", "123108.767500", "123110.775000", "123112.782500", "123114.790000", "123116.800000", "123118.807500", "123120.815000", "123122.822500", "123124.830000", "123126.840000", "123128.847500", "123130.855000", "123132.862500", "123134.870000", "123136.880000", "123138.887500", "123140.895000", "123142.902500", "123144.912500", "123146.920000", "123148.927500", "123150.935000", "123152.942500", "123154.952500", "123156.960000", "123158.967500", "123200.975000", "123202.982500", "123204.992500", "123207.000000", "123209.007500", "123211.015000", "123213.022500", "123215.032500", "123217.040000", "123219.047500", "123221.055000", "123223.065000", "123225.072500", "123227.080000", "123229.087500", "123231.095000", "123233.105000", "123235.112500", "123237.120000", "123239.127500", "123241.135000", "123243.145000", "123245.152500", "123247.160000", "123249.167500", "123251.177500", "123253.185000", "123255.192500", "123257.200000", "123259.207500", "123301.217500", "123303.225000", "123305.232500", "123307.240000", "123309.247500", "123311.257500", "123313.265000", "123315.272500", "123317.280000", "123319.290000", "123321.297500", "123323.305000", "123325.312500", "123327.320000", "123329.330000", "123331.337500", "123333.345000", "123335.352500", "123337.360000", "123339.370000", "123341.377500", "123343.385000", "123345.392500", "123347.400000", "123349.410000", "123351.417500", "123353.425000", "123355.432500", "123357.442500", "123359.450000", "123401.457500", "123403.465000", "123405.472500", "123407.482500", "123409.490000", "123411.497500", "123413.505000", "123415.512500", "123417.522500", "123419.530000", "123421.537500", "123423.545000", "123425.555000", "123427.562500", "123429.570000", "123431.577500", "123433.585000", "123435.595000", "123437.602500", "123439.610000", "123441.617500", "123443.625000", "123445.635000", "123447.642500", "123449.650000", "123451.657500", "123453.667500", "123455.675000", "123457.682500", "123459.690000", "123501.697500", "123503.707500", "123505.715000", "123507.722500", "123509.730000", "123511.737500", "123513.747500", "123515.755000", "123517.762500", "123519.770000", "123521.777500", "123523.787500", "123525.795000", "123527.802500", "123529.810000", "123531.820000", "123533.827500", "123535.835000", "123537.842500", "123539.850000", "123541.860000", "123543.867500", "123545.875000", "123547.882500", "123549.890000", "123551.900000", "123553.907500", "123555.915000", "123557.922500", "123559.932500", "123601.940000", "123603.947500", "123605.955000", "123607.962500", "123609.972500", "123611.980000", "123613.987500", "123615.995000", "123618.002500", "123620.012500", "123622.020000", "123624.027500", "123626.035000", "123628.045000", "123630.052500", "123632.060000", "123634.067500", "123636.075000", "123638.085000", "123640.092500", "123642.100000", "123644.107500", "123646.115000", "123648.125000", "123650.132500", "123652.140000", "123654.147500", "123656.157500", "123658.165000", "123700.172500", "123702.180000", "123704.187500", "123706.197500", "123708.205000", "123710.212500", "123712.220000", "123714.227500", "123716.237500", "123718.245000"],
      "ContentTime": ["122921.578000", "122921.578000", "122921.578000", "122921.578000", "122921.593000", "122921.593000", "122921.593000", "122921.593000", "122921.593000", "122921.593000", "122921.593000", "122921.609000", "122921.609000", "122921.609000", "122921.609000", "122921.609000", "122921.609000", "122921.609000", "122921.609000", "122921.625000", "123001.578000", "123001.578000", "123001.578000", "123001.578000", "123001.578000", "123001.578000", "123001.593000", "123001.593000", "123001.593000", "123001.593000", "123001.593000", "123001.593000", "123001.593000", "123001.609000", "123001.609000", "123001.609000", "123001.609000", "123001.609000", "123001.609000", "123001.609000", "123041.578000", "123041.578000", "123041.578000", "123041.578000", "123041.578000", "123041.578000", "123041.578000", "123041.593000", "123041.593000", "123041.593000", "123041.593000", "123041.593000", "123041.593000", "123041.593000", "123041.609000", "123041.609000", "123041.609000", "123041.609000", "123041.609000", "123041.625000", "123121.578000", "123121.578000", "123121.578000", "123121.578000", "123121.578000", "123121.578000", "123121.593000", "123121.593000", "123121.593000", "123121.593000", "123121.593000", "123121.593000", "123121.593000", "123121.593000", "123121.609000", "123121.609000", "123121.609000", "123121.609000", "123121.609000", "123121.609000", "123201.578000", "123201.578000", "123201.578000", "123201.578000", "123201.578000", "123201.593000", "123201.593000", "123201.593000", "123201.593000", "123201.593000", "123201.593000", "123201.593000", "123201.609000", "123201.609000", "123201.609000", "123201.609000", "123201.609000", "123201.625000", "123201.625000", "123201.625000", "123241.578000", "123241.578000", "123241.578000", "123241.578000", "123241.578000", "123241.578000", "123241.578000", "123241.593000", "123241.593000", "123241.593000", "123241.593000", "123241.593000", "123241.593000", "123241.593000", "123241.609000", "123241.609000", "123241.609000", "123241.609000", "123241.609000", "123241.609000", "123321.578000", "123321.578000", "123321.578000", "123321.578000", "123321.578000", "123321.593000", "123321.593000", "123321.593000", "123321.593000", "123321.593000", "123321.609000", "123321.609000", "123321.609000", "123321.609000", "123321.609000", "123321.609000", "123321.609000", "123321.625000", "123321.625000", "123321.625000", "123401.578000", "123401.578000", "123401.578000", "123401.578000", "123401.578000", "123401.578000", "123401.593000", "123401.593000", "123401.593000", "123401.593000", "123401.593000", "123401.593000", "123401.593000", "123401.593000", "123401.609000", "123401.609000", "123401.609000", "123401.609000", "123401.609000", "123401.609000", "123441.578000", "123441.578000", "123441.578000", "123441.578000", "123441.578000", "123441.578000", "123441.593000", "123441.593000", "123441.593000", "123441.593000", "123441.593000", "123441.593000", "123441.593000", "123441.609000", "123441.609000", "123441.609000", "123441.609000", "123441.609000", "123441.609000", "123441.625000", "123521.578000", "123521.578000", "123521.578000", "123521.578000", "123521.578000", "123521.578000", "123521.593000", "123521.593000", "123521.593000", "123521.593000", "123521.593000", "123521.593000", "123521.593000", "123521.593000", "123521.609000", "123521.609000", "123521.609000", "123521.609000", "123521.609000", "123521.625000", "123601.578000", "123601.578000", "123601.578000", "123601.578000", "123601.593000", "123601.593000", "123601.593000", "123601.593000", "123601.593000", "123601.593000", "123601.593000", "123601.609000", "123601.609000", "123601.609000", "123601.609000", "123601.609000", "123601.609000", "123601.609000", "123601.609000", "123601.625000", "123641.578000", "123641.578000", "123641.578000", "123641.578000", "123641.578000", "123641.578000", "123641.578000", "123641.593000", "123641.593000", "123641.593000", "123641.593000", "123641.593000", "123641.609000", "123641.609000", "123641.609000", "123641.609000", "123641.609000", "123641.625000", "123641.625000", "123641.625000", "123717.500000", "123717.500000", "123717.500000", "123717.500000", "123717.500000", "123717.500000", "123717.500000", "123717.515000", "123717.515000", "123717.515000", "123717.515000", "123717.515000", "123717.515000", "123717.515000", "123717.531000", "123717.531000", "123717.531000", "123717.531000"],
      "InstanceCreationTime": ["122921.578000", "122921.578000", "122921.578000", "122921.578000", "122921.593000", "122921.593000", "122921.593000", "122921.593000", "122921.593000", "122921.593000", "122921.593000", "122921.609000", "122921.609000", "122921.609000", "122921.609000", "122921.609000", "122921.609000", "122921.609000", "122921.609000", "122921.625000", "123001.578000", "123001.578000", "123001.578000", "123001.578000", "123001.578000", "123001.578000", "123001.593000", "123001.593000", "123001.593000", "123001.593000", "123001.593000", "123001.593000", "123001.593000", "123001.609000", "123001.609000", "123001.609000", "123001.609000", "123001.609000", "123001.609000", "123001.609000", "123041.578000", "123041.578000", "123041.578000", "123041.578000", "123041.578000", "123041.578000", "123041.578000", "123041.593000", "123041.593000", "123041.593000", "123041.593000", "123041.593000", "123041.593000", "123041.593000", "123041.609000", "123041.609000", "123041.609000", "123041.609000", "123041.609000", "123041.625000", "123121.578000", "123121.578000", "123121.578000", "123121.578000", "123121.578000", "123121.578000", "123121.593000", "123121.593000", "123121.593000", "123121.593000", "123121.593000", "123121.593000", "123121.593000", "123121.593000", "123121.609000", "123121.609000", "123121.609000", "123121.609000", "123121.609000", "123121.609000", "123201.578000", "123201.578000", "123201.578000", "123201.578000", "123201.578000", "123201.593000", "123201.593000", "123201.593000", "123201.593000", "123201.593000", "123201.593000", "123201.593000", "123201.609000", "123201.609000", "123201.609000", "123201.609000", "123201.609000", "123201.625000", "123201.625000", "123201.625000", "123241.578000", "123241.578000", "123241.578000", "123241.578000", "123241.578000", "123241.578000", "123241.578000", "123241.593000", "123241.593000", "123241.593000", "123241.593000", "123241.593000", "123241.593000", "123241.593000", "123241.609000", "123241.609000", "123241.609000", "123241.609000", "123241.609000", "123241.609000", "123321.578000", "123321.578000", "123321.578000", "123321.578000", "123321.578000", "123321.593000", "123321.593000", "123321.593000", "123321.593000", "123321.593000", "123321.609000", "123321.609000", "123321.609000", "123321.609000", "123321.609000", "123321.609000", "123321.609000", "123321.625000", "123321.625000", "123321.625000", "123401.578000", "123401.578000", "123401.578000", "123401.578000", "123401.578000", "123401.578000", "123401.593000", "123401.593000", "123401.593000", "123401.593000", "123401.593000", "123401.593000", "123401.593000", "123401.593000", "123401.609000", "123401.609000", "123401.609000", "123401.609000", "123401.609000", "123401.609000", "123441.578000", "123441.578000", "123441.578000", "123441.578000", "123441.578000", "123441.578000", "123441.593000", "123441.593000", "123441.593000", "123441.593000", "123441.593000", "123441.593000", "123441.593000", "123441.609000", "123441.609000", "123441.609000", "123441.609000", "123441.609000", "123441.609000", "123441.625000", "123521.578000", "123521.578000", "123521.578000", "123521.578000", "123521.578000", "123521.578000", "123521.593000", "123521.593000", "123521.593000", "123521.593000", "123521.593000", "123521.593000", "123521.593000", "123521.593000", "123521.609000", "123521.609000", "123521.609000", "123521.609000", "123521.609000", "123521.625000", "123601.578000", "123601.578000", "123601.578000", "123601.578000", "123601.593000", "123601.593000", "123601.593000", "123601.593000", "123601.593000", "123601.593000", "123601.593000", "123601.609000", "123601.609000", "123601.609000", "123601.609000", "123601.609000", "123601.609000", "123601.609000", "123601.609000", "123601.625000", "123641.578000", "123641.578000", "123641.578000", "123641.578000", "123641.578000", "123641.578000", "123641.578000", "123641.593000", "123641.593000", "123641.593000", "123641.593000", "123641.593000", "123641.609000", "123641.609000", "123641.609000", "123641.609000", "123641.609000", "123641.625000", "123641.625000", "123641.625000", "123717.500000", "123717.500000", "123717.500000", "123717.500000", "123717.500000", "123717.500000", "123717.500000", "123717.515000", "123717.515000", "123717.515000", "123717.515000", "123717.515000", "123717.515000", "123717.515000", "123717.531000", "123717.531000", "123717.531000", "123717.531000"],
      "InstanceNumber": [1, 2, 3, 4, 5, 6, 7, 8, 9, 10, 11, 12, 13, 14, 15, 16, 17, 18, 19, 20, 21, 22, 23, 24, 25, 26, 27, 28, 29, 30, 31, 32, 33, 34, 35, 36, 37, 38, 39, 40, 41, 42, 43, 44, 45, 46, 47, 48, 49, 50, 51, 52, 53, 54, 55, 56, 57, 58, 59, 60, 61, 62, 63, 64, 65, 66, 67, 68, 69, 70, 71, 72, 73, 74, 75, 76, 77, 78, 79, 80, 81, 82, 83, 84, 85, 86, 87, 88, 89, 90, 91, 92, 93, 94, 95, 96, 97, 98, 99, 100, 101, 102, 103, 104, 105, 106, 107, 108, 109, 110, 111, 112, 113, 114, 115, 116, 117, 118, 119, 120, 121, 122, 123, 124, 125, 126, 127, 128, 129, 130, 131, 132, 133, 134, 135, 136, 137, 138, 139, 140, 141, 142, 143, 144, 145, 146, 147, 148, 149, 150, 151, 152, 153, 154, 155, 156, 157, 158, 159, 160, 161, 162, 163, 164, 165, 166, 167, 168, 169, 170, 171, 172, 173, 174, 175, 176, 177, 178, 179, 180, 181, 182, 183, 184, 185, 186, 187, 188, 189, 190, 191, 192, 193, 194, 195, 196, 197, 198, 199, 200, 201, 202, 203, 204, 205, 206, 207, 208, 209, 210, 211, 212, 213, 214, 215, 216, 217, 218, 219, 220, 221, 222, 223, 224, 225, 226, 227, 228, 229, 230, 231, 232, 233, 234, 235, 236, 237, 238, 239, 240, 241, 242, 243, 244, 245, 246, 247, 248, 249, 250, 251, 252, 253, 254, 255, 256, 257, 258],
      "LargestImagePixelValue": [1828, 1719, 1713, 1700, 1742, 1770, 1683, 1687, 1681, 1707, 1692, 1685, 1704, 1692, 1691, 1708, 1701, 1727, 1688, 1704, 1695, 1691, 1699, 1707, 1688, 1686, 1760, 1780, 1741, 1702, 1655, 1665, 1681, 1688, 1696, 1706, 1719, 1700, 1695, 1710, 1720, 1706, 1670, 1678, 1711, 1719, 1703, 1715, 1728, 1710, 1701, 1722, 1710, 1721, 1674, 1696, 1700, 1682, 1679, 1734, 1690, 1691, 1721, 1711, 1695, 1728, 1665, 1680, 1699, 1682, 1718, 1706, 1702, 1705, 1711, 1686, 1700, 1728, 1690, 1694, 1702, 1675, 1682, 1699, 1659, 1677, 1696, 1713, 1674, 1703, 1701, 1687, 1687, 1704, 1691, 1681, 1687, 1693, 1702, 1702, 1697, 1713, 1727, 1664, 1694, 1724, 1692, 1684, 1704, 1731, 1674, 1680, 1729, 1664, 1688, 1659, 1684, 1676, 1681, 1708, 1686, 1657, 1653, 1688, 1689, 1663, 1692, 1677, 1691, 1694, 1668, 1696, 1656, 1674, 1668, 1692, 1662, 1767, 1672, 1645, 1689, 1693, 1680, 1714, 1691, 1712, 1745, 1695, 1675, 1683, 1683, 1677, 1681, 1732, 1719, 1703, 1683, 1716, 1720, 1672, 1679, 1703, 1684, 1711, 1688, 1697, 1717, 1721, 1683, 1715, 1697, 1719, 1699, 1722, 1718, 1794, 1741, 1726, 1743, 1740, 1730, 1733, 1735, 1729, 1733, 1751, 1712, 1728, 1756, 1738, 1730, 1744, 1703, 1687, 1695, 1698, 1726, 1714, 1728, 1704, 1711, 1727, 1737, 1712, 1720, 2002, 1724, 1700, 1691, 1698, 1674, 1697, 1698, 1743, 1712, 1711, 1692, 1726, 1733, 1734, 1706, 1711, 1707, 1739, 1704, 1720, 1727, 1736, 1728, 1711, 1746, 1738, 1722, 1741, 1722, 1736, 1741, 1709, 1746, 1716, 1835, 1731, 1727, 1712, 1737, 1719, 1725, 1807, 1715, 1733, 1746, 1720, 1716, 1728, 1734, 1731, 1711, 1681],
      "WindowCenter": [772.0, 768.0, 767.0, 766.0, 767.0, 770.0, 768.0, 769.0, 768.0, 768.0, 768.0, 768.0, 768.0, 768.0, 767.0, 767.0, 768.0, 768.0, 768.0, 768.0, 767.0, 767.0, 767.0, 767.0, 767.0, 768.0, 771.0, 778.0, 771.0, 770.0, 764.0, 766.0, 768.0, 768.0, 770.0, 768.0, 768.0, 767.0, 766.0, 767.0, 767.0, 767.0, 766.0, 767.0, 767.0, 768.0, 768.0, 769.0, 768.0, 768.0, 769.0, 769.0, 769.0, 769.0, 768.0, 770.0, 770.0, 769.0, 768.0, 769.0, 769.0, 768.0, 768.0, 767.0, 768.0, 768.0, 767.0, 768.0, 767.0, 767.0, 768.0, 768.0, 768.0, 769.0, 770.0, 769.0, 770.0, 770.0, 770.0, 771.0, 770.0, 769.0, 769.0, 769.0, 770.0, 770.0, 769.0, 769.0, 770.0, 770.0, 769.0, 769.0, 767.0, 767.0, 767.0, 767.0, 768.0, 768.0, 769.0, 769.0, 768.0, 769.0, 770.0, 768.0, 770.0, 770.0, 770.0, 769.0, 770.0, 771.0, 770.0, 770.0, 771.0, 770.0, 771.0, 771.0, 769.0, 769.0, 769.0, 770.0, 769.0, 768.0, 768.0, 769.0, 769.0, 769.0, 768.0, 767.0, 768.0, 768.0, 768.0, 768.0, 768.0, 770.0, 771.0, 771.0, 770.0, 771.0, 771.0, 770.0, 771.0, 771.0, 770.0, 770.0, 771.0, 772.0, 772.0, 771.0, 770.0, 772.0, 772.0, 771.0, 770.0, 771.0, 770.0, 771.0, 771.0, 771.0, 770.0, 769.0, 769.0, 769.0, 769.0, 770.0, 771.0, 771.0, 772.0, 772.0, 771.0, 771.0, 771.0, 771.0, 771.0, 773.0, 772.0, 771.0, 771.0, 771.0, 771.0, 772.0, 770.0, 770.0, 770.0, 771.0, 771.0, 770.0, 770.0, 770.0, 770.0, 770.0, 770.0, 770.0, 769.0, 769.0, 770.0, 770.0, 771.0, 771.0, 771.0, 772.0, 772.0, 771.0, 771.0, 771.0, 772.0, 774.0, 773.0, 772.0, 772.0, 772.0, 771.0, 772.0, 772.0, 772.0, 772.0, 772.0, 772.0, 771.0, 770.0, 770.0, 770.0, 770.0, 770.0, 771.0, 772.0, 772.0, 773.0, 773.0, 773.0, 772.0, 773.0, 772.0, 773.0, 773.0, 773.0, 773.0, 774.0, 773.0, 771.0, 770.0, 773.0, 772.0, 772.0, 771.0, 771.0, 771.0, 771.0, 771.0, 770.0, 770.0, 770.0, 772.0, 774.0, 773.0, 774.0, 773.0, 773.0, 772.0],
      "WindowWidth": [1610.0, 1601.0, 1598.0, 1595.0, 1598.0, 1606.0, 1601.0, 1602.0, 1600.0, 1600.0, 1599.0, 1599.0, 1601.0, 1600.0, 1598.0, 1598.0, 1600.0, 1601.0, 1599.0, 1599.0, 1598.0, 1598.0, 1598.0, 1597.0, 1597.0, 1600.0, 1609.0, 1625.0, 1610.0, 1606.0, 1591.0, 1595.0, 1602.0, 1601.0, 1605.0, 1601.0, 1600.0, 1597.0, 1596.0, 1598.0, 1598.0, 1598.0, 1596.0, 1598.0, 1598.0, 1600.0, 1601.0, 1602.0, 1601.0, 1601.0, 1603.0, 1602.0, 1604.0, 1602.0, 1601.0, 1605.0, 1604.0, 1603.0, 1601.0, 1603.0, 1603.0, 1600.0, 1600.0, 1598.0, 1600.0, 1601.0, 1598.0, 1600.0, 1598.0, 1598.0, 1601.0, 1600.0, 1600.0, 1603.0, 1606.0, 1603.0, 1606.0, 1606.0, 1605.0, 1607.0, 1606.0, 1603.0, 1603.0, 1603.0, 1606.0, 1605.0, 1603.0, 1604.0, 1606.0, 1604.0, 1604.0, 1602.0, 1599.0, 1598.0, 1597.0, 1598.0, 1601.0, 1599.0, 1603.0, 1603.0, 1601.0, 1603.0, 1605.0, 1601.0, 1606.0, 1606.0, 1605.0, 1604.0, 1605.0, 1607.0, 1604.0, 1606.0, 1608.0, 1606.0, 1608.0, 1608.0, 1603.0, 1602.0, 1602.0, 1604.0, 1604.0, 1601.0, 1601.0, 1603.0, 1602.0, 1603.0, 1601.0, 1598.0, 1600.0, 1601.0, 1600.0, 1601.0, 1600.0, 1605.0, 1607.0, 1607.0, 1605.0, 1607.0, 1607.0, 1606.0, 1607.0, 1606.0, 1606.0, 1606.0, 1608.0, 1611.0, 1610.0, 1607.0, 1606.0, 1609.0, 1609.0, 1606.0, 1605.0, 1607.0, 1604.0, 1608.0, 1607.0, 1607.0, 1604.0, 1602.0, 1601.0, 1602.0, 1601.0, 1605.0, 1607.0, 1608.0, 1609.0, 1610.0, 1608.0, 1607.0, 1607.0, 1608.0, 1608.0, 1612.0, 1609.0, 1608.0, 1608.0, 1608.0, 1609.0, 1609.0, 1604.0, 1606.0, 1606.0, 1608.0, 1607.0, 1606.0, 1606.0, 1606.0, 1606.0, 1605.0, 1604.0, 1604.0, 1602.0, 1603.0, 1605.0, 1605.0, 1607.0, 1607.0, 1607.0, 1609.0, 1609.0, 1607.0, 1607.0, 1608.0, 1610.0, 1615.0, 1613.0, 1610.0, 1610.0, 1610.0, 1608.0, 1609.0, 1609.0, 1611.0, 1609.0, 1610.0, 1609.0, 1607.0, 1605.0, 1605.0, 1604.0, 1605.0, 1605.0, 1608.0, 1611.0, 1610.0, 1612.0, 1613.0, 1613.0, 1610.0, 1612.0, 1611.0, 1613.0, 1613.0, 1613.0, 1614.0, 1614.0, 1611.0, 1607.0, 1606.0, 1613.0, 1611.0, 1610.0, 1608.0, 1608.0, 1608.0, 1607.0, 1608.0, 1606.0, 1606.0, 1606.0, 1611.0, 1614.0, 1613.0, 1614.0, 1612.0, 1612.0, 1609.0]
    },
    "slices": {}
  }
}