{
  "aor": 0.006341166666666666,
  "aqi": 0.027276625000000002,
  "bids_meta": {
    "AcquisitionMatrixPE": 68,
    "AcquisitionNumber": 1,
    "AcquisitionTime": "16:14:45.517500",
    "BandwidthPerPixelPhaseEncode": 31.289,
    "BaseResolution": 68,
    "CogAtlasID": "TODO",
    "CoilString": "C:HEA;HEP",
    "ConversionSoftware": "dcm2niix",
    "ConversionSoftwareVersion": "v1.0.20190902",
    "DerivedVendorReportedEchoSpacing": 0.000470002,
    "DeviceSerialNumber": "35450",
    "DwellTime": 3e-06,
    "EchoTime": 0.023,
    "EffectiveEchoSpacing": 0.000470002,
    "FlipAngle": 76,
    "ImageOrientationPatientDICOM": [
      0.999976,
      0.000814536,
      0.00693358,
      -2.7569e-08,
      0.993171,
      -0.116671
    ],
    "ImageType": [
      "ORIGINAL",
      "PRIMARY",
      "M",
      "ND",
      "MOSAIC"
    ],
    "ImagingFrequency": 123.219,
    "InPlanePhaseEncodingDirectionDICOM": "COL",
    "InstitutionAddress": "Univeristy_Ave._197_Newark_North_East_US_07102-1814",
    "InstitutionName": "RUBIC",
    "InstitutionalDepartmentName": "Department",
    "MRAcquisitionType": "2D",
    "MagneticFieldStrength": 3,
    "Manufacturer": "Siemens",
    "ManufacturersModelName": "TrioTim",
    "Modality": "MR",
    "PartialFourier": 1,
    "PatientPosition": "HFS",
    "PercentPhaseFOV": 100,
    "PhaseEncodingDirection": "j-",
    "PhaseEncodingSteps": 68,
    "PhaseResolution": 1,
    "PixelBandwidth": 2451,
    "ProcedureStepDescription": "Krekelberg_David",
    "ProtocolName": "ep2d_bold_RestEPI_4",
    "PulseSequenceDetails": "%SiemensSeq%_ep2d_bold",
    "ReceiveCoilName": "HeadMatrix",
    "ReconMatrixPE": 68,
    "RepetitionTime": 2,
    "SAR": 0.18417,
    "ScanOptions": "FS",
    "ScanningSequence": "EP",
    "SequenceName": "_epfid2d1_68",
    "SequenceVariant": "SK",
    "SeriesDescription": "ep2d_bold_RestEPI_4",
    "SeriesNumber": 11,
    "ShimSetting": [
      1974,
      -656,
      -7530,
      714,
      83,
      -34,
      -503,
      -71
    ],
    "SliceThickness": 2.5,
    "SliceTiming": [
      1.9525,
      1.895,
      1.84,
      1.785,
      1.7275,
      1.6725,
      1.6175,
      1.5625,
      1.505,
      1.45,
      1.395,
      1.3375,
      1.2825,
      1.2275,
      1.17,
      1.115,
      1.06,
      1.0025,
      0.9475,
      0.8925,
      0.8375,
      0.78,
      0.725,
      0.67,
      0.6125,
      0.5575,
      0.5025,
      0.445,
      0.39,
      0.335,
      0.28,
      0.2225,
      0.1675,
      0.1125,
      0.055,
      0
    ],
    "SoftwareVersions": "syngo_MR_B19",
    "SpacingBetweenSlices": 3,
    "StationName": "MRC35450",
    "TaskName": "rest",
    "TotalReadoutTime": 0.0314901,
    "TxRefAmp": 347.536,
    "dataset": "<unset>",
    "dcmmeta_affine": [
      [
        -2.999926805496216,
        -8.270708917734737e-08,
        0.0209437794983387,
        102.98693084716797
      ],
      [
        -0.0024436083622276783,
        2.9795119762420654,
        -0.3500036895275116,
        -75.16548919677734
      ],
      [
        0.020800737664103508,
        0.3500122129917145,
        2.9794392585754395,
        -48.12656784057617
      ],
      [
        0.0,
        0.0,
        0.0,
        1.0
      ]
    ],
    "dcmmeta_reorient_transform": [
      [
        0.0,
        -1.0,
        0.0,
        67.0
      ],
      [
        1.0,
        0.0,
        0.0,
        0.0
      ],
      [
        0.0,
        0.0,
        1.0,
        0.0
      ],
      [
        0.0,
        0.0,
        0.0,
        1.0
      ]
    ],
    "dcmmeta_shape": [
      68,
      68,
      36,
      240
    ],
    "dcmmeta_slice_dim": 2,
    "dcmmeta_version": 0.6,
    "global": {
      "const": {
        "AcquisitionMatrix": [
          68,
          0,
          0,
          68
        ],
        "AngioFlag": "N",
        "BitsAllocated": 16,
        "BitsStored": 12,
        "Columns": 408,
        "EchoNumbers": 1,
        "EchoTime": 23.0,
        "EchoTrainLength": 1,
        "FlipAngle": 76.0,
        "HighBit": 11,
        "ImageOrientationPatient": [
          0.99997563070726,
          0.0008145361468,
          0.00693357934158,
          -2.756903e-08,
          0.99317064931944,
          -0.116670738964
        ],
        "ImagePositionPatient": [
          -612.97448518343,
          -631.39425470285,
          31.290203242885
        ],
        "ImageType": [
          "ORIGINAL",
          "PRIMARY",
          "M",
          "ND",
          "MOSAIC"
        ],
        "ImagedNucleus": "1H",
        "ImagingFrequency": 123.218577,
        "InPlanePhaseEncodingDirection": "COL",
        "MRAcquisitionType": "2D",
        "MagneticFieldStrength": 3.0,
        "Manufacturer": "SIEMENS",
        "ManufacturerModelName": "TrioTim",
        "Modality": "MR",
        "NumberOfAverages": 1.0,
        "NumberOfPhaseEncodingSteps": 68,
        "PercentPhaseFieldOfView": 100.0,
        "PercentSampling": 100.0,
        "PerformedProcedureStepStartTime": "150404.187000",
        "PhotometricInterpretation": "MONOCHROME2",
        "PixelBandwidth": 2451.0,
        "PixelRepresentation": 0,
        "PixelSpacing": [
          3.0,
          3.0
        ],
        "ProtocolName": "ep2d_bold_RestEPI_4",
        "RepetitionTime": 2000.0,
        "Rows": 408,
        "SAR": 0.18417030687757,
        "SamplesPerPixel": 1,
        "ScanOptions": "FS",
        "ScanningSequence": "EP",
        "SequenceName": "*epfid2d1_68",
        "SequenceVariant": "SK",
        "SeriesDescription": "ep2d_bold_RestEPI_4",
        "SeriesNumber": 11,
        "SeriesTime": "161541.234000",
        "SliceLocation": -38.308350549893,
        "SliceThickness": 2.5,
        "SmallestImagePixelValue": 0,
        "SoftwareVersions": "syngo MR B19",
        "SpacingBetweenSlices": 2.9999999832036,
        "SpecificCharacterSet": "ISO_IR 100",
        "StudyID": "1",
        "StudyTime": "150404.140000",
        "TransmitCoilName": "Body",
        "VariableFlipAngleFlag": "N",
        "WindowCenterWidthExplanation": "Algo1",
        "dBdt": 0.0
      },
      "slices": {}
    },
    "modality": "bold",
    "run_id": 4,
    "subject_id": "218",
    "task_id": "rest",
    "time": {
      "samples": {
        "AcquisitionNumber": [
          1,
          2,
          3,
          4,
          5,
          6,
          7,
          8,
          9,
          10,
          11,
          12,
          13,
          14,
          15,
          16,
          17,
          18,
          19,
          20,
          21,
          22,
          23,
          24,
          25,
          26,
          27,
          28,
          29,
          30,
          31,
          32,
          33,
          34,
          35,
          36,
          37,
          38,
          39,
          40,
          41,
          42,
          43,
          44,
          45,
          46,
          47,
          48,
          49,
          50,
          51,
          52,
          53,
          54,
          55,
          56,
          57,
          58,
          59,
          60,
          61,
          62,
          63,
          64,
          65,
          66,
          67,
          68,
          69,
          70,
          71,
          72,
          73,
          74,
          75,
          76,
          77,
          78,
          79,
          80,
          81,
          82,
          83,
          84,
          85,
          86,
          87,
          88,
          89,
          90,
          91,
          92,
          93,
          94,
          95,
          96,
          97,
          98,
          99,
          100,
          101,
          102,
          103,
          104,
          105,
          106,
          107,
          108,
          109,
          110,
          111,
          112,
          113,
          114,
          115,
          116,
          117,
          118,
          119,
          120,
          121,
          122,
          123,
          124,
          125,
          126,
          127,
          128,
          129,
          130,
          131,
          132,
          133,
          134,
          135,
          136,
          137,
          138,
          139,
          140,
          141,
          142,
          143,
          144,
          145,
          146,
          147,
          148,
          149,
          150,
          151,
          152,
          153,
          154,
          155,
          156,
          157,
          158,
          159,
          160,
          161,
          162,
          163,
          164,
          165,
          166,
          167,
          168,
          169,
          170,
          171,
          172,
          173,
          174,
          175,
          176,
          177,
          178,
          179,
          180,
          181,
          182,
          183,
          184,
          185,
          186,
          187,
          188,
          189,
          190,
          191,
          192,
          193,
          194,
          195,
          196,
          197,
          198,
          199,
          200,
          201,
          202,
          203,
          204,
          205,
          206,
          207,
          208,
          209,
          210,
          211,
          212,
          213,
          214,
          215,
          216,
          217,
          218,
          219,
          220,
          221,
          222,
          223,
          224,
          225,
          226,
          227,
          228,
          229,
          230,
          231,
          232,
          233,
          234,
          235,
          236,
          237,
          238,
          239,
          240
        ],
        "AcquisitionTime": [
          "161445.517500",
          "161447.525000",
          "161449.532500",
          "161451.540000",
          "161453.550000",
          "161455.557500",
          "161457.565000",
          "161459.572500",
          "161501.580000",
          "161503.590000",
          "161505.597500",
          "161507.605000",
          "161509.612500",
          "161511.620000",
          "161513.630000",
          "161515.637500",
          "161517.645000",
          "161519.652500",
          "161521.662500",
          "161523.670000",
          "161525.677500",
          "161527.685000",
          "161529.692500",
          "161531.702500",
          "161533.710000",
          "161535.717500",
          "161537.725000",
          "161539.732500",
          "161541.742500",
          "161543.750000",
          "161545.757500",
          "161547.765000",
          "161549.772500",
          "161551.782500",
          "161553.790000",
          "161555.797500",
          "161557.805000",
          "161559.815000",
          "161601.822500",
          "161603.830000",
          "161605.837500",
          "161607.845000",
          "161609.855000",
          "161611.862500",
          "161613.870000",
          "161615.877500",
          "161617.885000",
          "161619.895000",
          "161621.902500",
          "161623.910000",
          "161625.917500",
          "161627.927500",
          "161629.935000",
          "161631.942500",
          "161633.950000",
          "161635.957500",
          "161637.967500",
          "161639.975000",
          "161641.982500",
          "161643.990000",
          "161645.997500",
          "161648.007500",
          "161650.015000",
          "161652.022500",
          "161654.030000",
          "161656.040000",
          "161658.047500",
          "161700.055000",
          "161702.062500",
          "161704.070000",
          "161706.080000",
          "161708.087500",
          "161710.095000",
          "161712.102500",
          "161714.110000",
          "161716.120000",
          "161718.127500",
          "161720.135000",
          "161722.142500",
          "161724.150000",
          "161726.160000",
          "161728.167500",
          "161730.175000",
          "161732.182500",
          "161734.192500",
          "161736.200000",
          "161738.207500",
          "161740.215000",
          "161742.222500",
          "161744.232500",
          "161746.240000",
          "161748.247500",
          "161750.255000",
          "161752.262500",
          "161754.272500",
          "161756.280000",
          "161758.287500",
          "161800.295000",
          "161802.305000",
          "161804.312500",
          "161806.320000",
          "161808.327500",
          "161810.335000",
          "161812.345000",
          "161814.352500",
          "161816.360000",
          "161818.367500",
          "161820.375000",
          "161822.385000",
          "161824.392500",
          "161826.400000",
          "161828.407500",
          "161830.417500",
          "161832.425000",
          "161834.432500",
          "161836.440000",
          "161838.447500",
          "161840.457500",
          "161842.465000",
          "161844.472500",
          "161846.480000",
          "161848.487500",
          "161850.497500",
          "161852.505000",
          "161854.512500",
          "161856.520000",
          "161858.527500",
          "161900.537500",
          "161902.545000",
          "161904.552500",
          "161906.560000",
          "161908.570000",
          "161910.577500",
          "161912.585000",
          "161914.592500",
          "161916.600000",
          "161918.610000",
          "161920.617500",
          "161922.625000",
          "161924.632500",
          "161926.640000",
          "161928.650000",
          "161930.657500",
          "161932.665000",
          "161934.672500",
          "161936.682500",
          "161938.690000",
          "161940.697500",
          "161942.705000",
          "161944.712500",
          "161946.722500",
          "161948.730000",
          "161950.737500",
          "161952.745000",
          "161954.752500",
          "161956.762500",
          "161958.770000",
          "162000.777500",
          "162002.785000",
          "162004.795000",
          "162006.802500",
          "162008.810000",
          "162010.817500",
          "162012.825000",
          "162014.835000",
          "162016.842500",
          "162018.850000",
          "162020.857500",
          "162022.865000",
          "162024.875000",
          "162026.882500",
          "162028.890000",
          "162030.897500",
          "162032.907500",
          "162034.915000",
          "162036.922500",
          "162038.930000",
          "162040.937500",
          "162042.947500",
          "162044.955000",
          "162046.962500",
          "162048.970000",
          "162050.977500",
          "162052.987500",
          "162054.995000",
          "162057.002500",
          "162059.010000",
          "162101.017500",
          "162103.027500",
          "162105.035000",
          "162107.042500",
          "162109.050000",
          "162111.060000",
          "162113.067500",
          "162115.075000",
          "162117.082500",
          "162119.090000",
          "162121.100000",
          "162123.107500",
          "162125.115000",
          "162127.122500",
          "162129.130000",
          "162131.140000",
          "162133.147500",
          "162135.155000",
          "162137.162500",
          "162139.172500",
          "162141.180000",
          "162143.187500",
          "162145.195000",
          "162147.202500",
          "162149.212500",
          "162151.220000",
          "162153.227500",
          "162155.235000",
          "162157.242500",
          "162159.252500",
          "162201.260000",
          "162203.267500",
          "162205.275000",
          "162207.285000",
          "162209.292500",
          "162211.300000",
          "162213.307500",
          "162215.315000",
          "162217.325000",
          "162219.332500",
          "162221.340000",
          "162223.347500",
          "162225.355000",
          "162227.365000",
          "162229.372500",
          "162231.380000",
          "162233.387500",
          "162235.395000",
          "162237.405000",
          "162239.412500",
          "162241.420000",
          "162243.427500",
          "162245.437500"
        ],
        "ContentTime": [
          "161541.234000",
          "161541.234000",
          "161541.234000",
          "161541.234000",
          "161541.234000",
          "161541.234000",
          "161541.250000",
          "161541.250000",
          "161541.250000",
          "161541.250000",
          "161541.250000",
          "161541.250000",
          "161541.250000",
          "161541.265000",
          "161541.265000",
          "161541.265000",
          "161541.265000",
          "161541.265000",
          "161541.265000",
          "161541.265000",
          "161541.281000",
          "161541.281000",
          "161541.281000",
          "161541.281000",
          "161541.281000",
          "161541.281000",
          "161541.296000",
          "161541.296000",
          "161621.218000",
          "161621.234000",
          "161621.234000",
          "161621.234000",
          "161621.234000",
          "161621.234000",
          "161621.234000",
          "161621.234000",
          "161621.250000",
          "161621.250000",
          "161621.250000",
          "161621.250000",
          "161621.250000",
          "161621.250000",
          "161621.250000",
          "161621.250000",
          "161621.265000",
          "161621.265000",
          "161621.265000",
          "161621.265000",
          "161701.218000",
          "161701.234000",
          "161701.234000",
          "161701.234000",
          "161701.234000",
          "161701.234000",
          "161701.234000",
          "161701.234000",
          "161701.250000",
          "161701.250000",
          "161701.250000",
          "161701.250000",
          "161701.250000",
          "161701.250000",
          "161701.250000",
          "161701.265000",
          "161701.265000",
          "161701.265000",
          "161701.265000",
          "161701.265000",
          "161741.218000",
          "161741.234000",
          "161741.234000",
          "161741.234000",
          "161741.234000",
          "161741.234000",
          "161741.234000",
          "161741.234000",
          "161741.250000",
          "161741.250000",
          "161741.250000",
          "161741.250000",
          "161741.250000",
          "161741.250000",
          "161741.250000",
          "161741.265000",
          "161741.265000",
          "161741.265000",
          "161741.265000",
          "161741.265000",
          "161821.218000",
          "161821.234000",
          "161821.234000",
          "161821.234000",
          "161821.234000",
          "161821.234000",
          "161821.234000",
          "161821.234000",
          "161821.250000",
          "161821.250000",
          "161821.250000",
          "161821.250000",
          "161821.250000",
          "161821.250000",
          "161821.250000",
          "161821.265000",
          "161821.265000",
          "161821.265000",
          "161821.265000",
          "161821.265000",
          "161901.218000",
          "161901.234000",
          "161901.234000",
          "161901.234000",
          "161901.234000",
          "161901.234000",
          "161901.234000",
          "161901.234000",
          "161901.250000",
          "161901.250000",
          "161901.250000",
          "161901.250000",
          "161901.250000",
          "161901.250000",
          "161901.250000",
          "161901.250000",
          "161901.265000",
          "161901.265000",
          "161901.265000",
          "161901.265000",
          "161941.218000",
          "161941.234000",
          "161941.234000",
          "161941.234000",
          "161941.234000",
          "161941.234000",
          "161941.234000",
          "161941.234000",
          "161941.250000",
          "161941.250000",
          "161941.250000",
          "161941.250000",
          "161941.250000",
          "161941.250000",
          "161941.250000",
          "161941.250000",
          "161941.265000",
          "161941.265000",
          "161941.265000",
          "161941.265000",
          "162021.218000",
          "162021.234000",
          "162021.234000",
          "162021.234000",
          "162021.234000",
          "162021.234000",
          "162021.234000",
          "162021.234000",
          "162021.250000",
          "162021.250000",
          "162021.250000",
          "162021.250000",
          "162021.250000",
          "162021.250000",
          "162021.250000",
          "162021.250000",
          "162021.265000",
          "162021.265000",
          "162021.265000",
          "162021.265000",
          "162101.218000",
          "162101.234000",
          "162101.234000",
          "162101.234000",
          "162101.234000",
          "162101.234000",
          "162101.234000",
          "162101.234000",
          "162101.250000",
          "162101.250000",
          "162101.250000",
          "162101.250000",
          "162101.250000",
          "162101.250000",
          "162101.250000",
          "162101.265000",
          "162101.265000",
          "162101.265000",
          "162101.265000",
          "162101.265000",
          "162141.218000",
          "162141.234000",
          "162141.234000",
          "162141.234000",
          "162141.234000",
          "162141.234000",
          "162141.234000",
          "162141.234000",
          "162141.250000",
          "162141.250000",
          "162141.250000",
          "162141.250000",
          "162141.250000",
          "162141.250000",
          "162141.250000",
          "162141.265000",
          "162141.265000",
          "162141.265000",
          "162141.265000",
          "162141.265000",
          "162221.218000",
          "162221.234000",
          "162221.234000",
          "162221.234000",
          "162221.234000",
          "162221.234000",
          "162221.234000",
          "162221.234000",
          "162221.250000",
          "162221.250000",
          "162221.250000",
          "162221.250000",
          "162221.250000",
          "162221.250000",
          "162221.250000",
          "162221.265000",
          "162221.265000",
          "162221.265000",
          "162221.265000",
          "162221.265000",
          "162244.593000",
          "162244.593000",
          "162244.593000",
          "162244.593000",
          "162244.593000",
          "162244.593000",
          "162244.593000",
          "162244.609000",
          "162244.609000",
          "162244.609000",
          "162244.609000",
          "162244.609000"
        ],
        "InstanceCreationTime": [
          "161541.234000",
          "161541.234000",
          "161541.234000",
          "161541.234000",
          "161541.234000",
          "161541.234000",
          "161541.250000",
          "161541.250000",
          "161541.250000",
          "161541.250000",
          "161541.250000",
          "161541.250000",
          "161541.250000",
          "161541.265000",
          "161541.265000",
          "161541.265000",
          "161541.265000",
          "161541.265000",
          "161541.265000",
          "161541.265000",
          "161541.281000",
          "161541.281000",
          "161541.281000",
          "161541.281000",
          "161541.281000",
          "161541.281000",
          "161541.296000",
          "161541.296000",
          "161621.218000",
          "161621.234000",
          "161621.234000",
          "161621.234000",
          "161621.234000",
          "161621.234000",
          "161621.234000",
          "161621.234000",
          "161621.250000",
          "161621.250000",
          "161621.250000",
          "161621.250000",
          "161621.250000",
          "161621.250000",
          "161621.250000",
          "161621.250000",
          "161621.265000",
          "161621.265000",
          "161621.265000",
          "161621.265000",
          "161701.218000",
          "161701.234000",
          "161701.234000",
          "161701.234000",
          "161701.234000",
          "161701.234000",
          "161701.234000",
          "161701.234000",
          "161701.250000",
          "161701.250000",
          "161701.250000",
          "161701.250000",
          "161701.250000",
          "161701.250000",
          "161701.250000",
          "161701.265000",
          "161701.265000",
          "161701.265000",
          "161701.265000",
          "161701.265000",
          "161741.218000",
          "161741.234000",
          "161741.234000",
          "161741.234000",
          "161741.234000",
          "161741.234000",
          "161741.234000",
          "161741.234000",
          "161741.250000",
          "161741.250000",
          "161741.250000",
          "161741.250000",
          "161741.250000",
          "161741.250000",
          "161741.250000",
          "161741.265000",
          "161741.265000",
          "161741.265000",
          "161741.265000",
          "161741.265000",
          "161821.218000",
          "161821.234000",
          "161821.234000",
          "161821.234000",
          "161821.234000",
          "161821.234000",
          "161821.234000",
          "161821.234000",
          "161821.250000",
          "161821.250000",
          "161821.250000",
          "161821.250000",
          "161821.250000",
          "161821.250000",
          "161821.250000",
          "161821.265000",
          "161821.265000",
          "161821.265000",
          "161821.265000",
          "161821.265000",
          "161901.218000",
          "161901.234000",
          "161901.234000",
          "161901.234000",
          "161901.234000",
          "161901.234000",
          "161901.234000",
          "161901.234000",
          "161901.250000",
          "161901.250000",
          "161901.250000",
          "161901.250000",
          "161901.250000",
          "161901.250000",
          "161901.250000",
          "161901.250000",
          "161901.265000",
          "161901.265000",
          "161901.265000",
          "161901.265000",
          "161941.218000",
          "161941.234000",
          "161941.234000",
          "161941.234000",
          "161941.234000",
          "161941.234000",
          "161941.234000",
          "161941.234000",
          "161941.250000",
          "161941.250000",
          "161941.250000",
          "161941.250000",
          "161941.250000",
          "161941.250000",
          "161941.250000",
          "161941.250000",
          "161941.265000",
          "161941.265000",
          "161941.265000",
          "161941.265000",
          "162021.218000",
          "162021.234000",
          "162021.234000",
          "162021.234000",
          "162021.234000",
          "162021.234000",
          "162021.234000",
          "162021.234000",
          "162021.250000",
          "162021.250000",
          "162021.250000",
          "162021.250000",
          "162021.250000",
          "162021.250000",
          "162021.250000",
          "162021.250000",
          "162021.265000",
          "162021.265000",
          "162021.265000",
          "162021.265000",
          "162101.218000",
          "162101.234000",
          "162101.234000",
          "162101.234000",
          "162101.234000",
          "162101.234000",
          "162101.234000",
          "162101.234000",
          "162101.250000",
          "162101.250000",
          "162101.250000",
          "162101.250000",
          "162101.250000",
          "162101.250000",
          "162101.250000",
          "162101.265000",
          "162101.265000",
          "162101.265000",
          "162101.265000",
          "162101.265000",
          "162141.218000",
          "162141.234000",
          "162141.234000",
          "162141.234000",
          "162141.234000",
          "162141.234000",
          "162141.234000",
          "162141.234000",
          "162141.250000",
          "162141.250000",
          "162141.250000",
          "162141.250000",
          "162141.250000",
          "162141.250000",
          "162141.250000",
          "162141.265000",
          "162141.265000",
          "162141.265000",
          "162141.265000",
          "162141.265000",
          "162221.218000",
          "162221.234000",
          "162221.234000",
          "162221.234000",
          "162221.234000",
          "162221.234000",
          "162221.234000",
          "162221.234000",
          "162221.250000",
          "162221.250000",
          "162221.250000",
          "162221.250000",
          "162221.250000",
          "162221.250000",
          "162221.250000",
          "162221.265000",
          "162221.265000",
          "162221.265000",
          "162221.265000",
          "162221.265000",
          "162244.593000",
          "162244.593000",
          "162244.593000",
          "162244.593000",
          "162244.593000",
          "162244.593000",
          "162244.593000",
          "162244.609000",
          "162244.609000",
          "162244.609000",
          "162244.609000",
          "162244.609000"
        ],
        "InstanceNumber": [
          1,
          2,
          3,
          4,
          5,
          6,
          7,
          8,
          9,
          10,
          11,
          12,
          13,
          14,
          15,
          16,
          17,
          18,
          19,
          20,
          21,
          22,
          23,
          24,
          25,
          26,
          27,
          28,
          29,
          30,
          31,
          32,
          33,
          34,
          35,
          36,
          37,
          38,
          39,
          40,
          41,
          42,
          43,
          44,
          45,
          46,
