{
  "aor": 0.007732996108949416,
  "aqi": 0.030384156420233465,
  "bids_meta": {
    "AcquisitionMatrixPE": 68,
    "AcquisitionNumber": 1,
    "AcquisitionTime": "16:23:53.082500",
    "BandwidthPerPixelPhaseEncode": 31.289,
    "BaseResolution": 68,
    "CogAtlasID": "TODO",
    "CoilString": "C:HEA;HEP",
    "ConversionSoftware": "dcm2niix",
    "ConversionSoftwareVersion": "v1.0.20190902",
    "DerivedVendorReportedEchoSpacing": 0.000470002,
    "DeviceSerialNumber": "35450",
    "DwellTime": 3e-06,
    "EchoTime": 0.023,
    "EffectiveEchoSpacing": 0.000470002,
    "FlipAngle": 76,
    "ImageOrientationPatientDICOM": [
      0.999976,
      0.000814536,
      0.00693358,
      -2.7569e-08,
      0.993171,
      -0.116671
    ],
    "ImageType": [
      "ORIGINAL",
      "PRIMARY",
      "M",
      "ND",
      "MOSAIC"
    ],
    "ImagingFrequency": 123.219,
    "InPlanePhaseEncodingDirectionDICOM": "COL",
    "InstitutionAddress": "Univeristy_Ave._197_Newark_North_East_US_07102-1814",
    "InstitutionName": "RUBIC",
    "InstitutionalDepartmentName": "Department",
    "MRAcquisitionType": "2D",
    "MagneticFieldStrength": 3,
    "Manufacturer": "Siemens",
    "ManufacturersModelName": "TrioTim",
    "Modality": "MR",
    "PartialFourier": 1,
    "PatientPosition": "HFS",
    "PercentPhaseFOV": 100,
    "PhaseEncodingDirection": "j-",
    "PhaseEncodingSteps": 68,
    "PhaseResolution": 1,
    "PixelBandwidth": 2451,
    "ProcedureStepDescription": "Krekelberg_David",
    "ProtocolName": "ep2d_bold_CardGameEPI_3",
    "PulseSequenceDetails": "%SiemensSeq%_ep2d_bold",
    "ReceiveCoilName": "HeadMatrix",
    "ReconMatrixPE": 68,
    "RepetitionTime": 2,
    "SAR": 0.18421,
    "ScanOptions": "FS",
    "ScanningSequence": "EP",
    "SequenceName": "_epfid2d1_68",
    "SequenceVariant": "SK",
    "SeriesDescription": "ep2d_bold_CardGameEPI_3",
    "SeriesNumber": 12,
    "ShimSetting": [
      1974,
      -656,
      -7530,
      714,
      83,
      -34,
      -503,
      -71
    ],
    "SliceThickness": 2.5,
    "SliceTiming": [
      1.9525,
      1.895,
      1.84,
      1.785,
      1.73,
      1.6725,
      1.6175,
      1.5625,
      1.505,
      1.45,
      1.395,
      1.3375,
      1.2825,
      1.2275,
      1.1725,
      1.115,
      1.06,
      1.005,
      0.9475,
      0.8925,
      0.8375,
      0.78,
      0.725,
      0.67,
      0.6125,
      0.5575,
      0.5025,
      0.4475,
      0.39,
      0.335,
      0.28,
      0.2225,
      0.1675,
      0.1125,
      0.055,
      0
    ],
    "SoftwareVersions": "syngo_MR_B19",
    "SpacingBetweenSlices": 3,
    "StationName": "MRC35450",
    "TaskName": "cardgame",
    "TotalReadoutTime": 0.0314901,
    "TxRefAmp": 347.536,
    "dataset": "<unset>",
    "dcmmeta_affine": [
      [
        -2.999926805496216,
        -8.270708917734737e-08,
        0.0209437794983387,
        102.98693084716797
      ],
      [
        -0.0024436083622276783,
        2.9795119762420654,
        -0.3500036895275116,
        -75.16548919677734
      ],
      [
        0.020800737664103508,
        0.3500122129917145,
        2.9794392585754395,
        -48.12656784057617
      ],
      [
        0.0,
        0.0,
        0.0,
        1.0
      ]
    ],
    "dcmmeta_reorient_transform": [
      [
        0.0,
        -1.0,
        0.0,
        67.0
      ],
      [
        1.0,
        0.0,
        0.0,
        0.0
      ],
      [
        0.0,
        0.0,
        1.0,
        0.0
      ],
      [
        0.0,
        0.0,
        0.0,
        1.0
      ]
    ],
    "dcmmeta_shape": [
      68,
      68,
      36,
      258
    ],
    "dcmmeta_slice_dim": 2,
    "dcmmeta_version": 0.6,
    "global": {
      "const": {
        "AcquisitionMatrix": [
          68,
          0,
          0,
          68
        ],
        "AngioFlag": "N",
        "BitsAllocated": 16,
        "BitsStored": 12,
        "Columns": 408,
        "EchoNumbers": 1,
        "EchoTime": 23.0,
        "EchoTrainLength": 1,
        "FlipAngle": 76.0,
        "HighBit": 11,
        "ImageOrientationPatient": [
          0.99997563070726,
          0.0008145361468,
          0.00693357934158,
          -2.756903e-08,
          0.99317064931944,
          -0.116670738964
        ],
        "ImagePositionPatient": [
          -612.97448518343,
          -631.39425470285,
          31.290203242885
        ],
        "ImageType": [
          "ORIGINAL",
          "PRIMARY",
          "M",
          "ND",
          "MOSAIC"
        ],
        "ImagedNucleus": "1H",
        "ImagingFrequency": 123.218586,
        "InPlanePhaseEncodingDirection": "COL",
        "MRAcquisitionType": "2D",
        "MagneticFieldStrength": 3.0,
        "Manufacturer": "SIEMENS",
        "ManufacturerModelName": "TrioTim",
        "Modality": "MR",
        "NumberOfAverages": 1.0,
        "NumberOfPhaseEncodingSteps": 68,
        "PercentPhaseFieldOfView": 100.0,
        "PercentSampling": 100.0,
        "PerformedProcedureStepStartTime": "150404.187000",
        "PhotometricInterpretation": "MONOCHROME2",
        "PixelBandwidth": 2451.0,
        "PixelRepresentation": 0,
        "PixelSpacing": [
          3.0,
          3.0
        ],
        "ProtocolName": "ep2d_bold_CardGameEPI_3",
        "RepetitionTime": 2000.0,
        "Rows": 408,
        "SAR": 0.184209708463,
        "SamplesPerPixel": 1,
        "ScanOptions": "FS",
        "ScanningSequence": "EP",
        "SequenceName": "*epfid2d1_68",
        "SequenceVariant": "SK",
        "SeriesDescription": "ep2d_bold_CardGameEPI_3",
        "SeriesNumber": 12,
        "SeriesTime": "162446.203000",
        "SliceLocation": -38.308350549893,
        "SliceThickness": 2.5,
        "SmallestImagePixelValue": 0,
        "SoftwareVersions": "syngo MR B19",
        "SpacingBetweenSlices": 2.9999999832036,
        "SpecificCharacterSet": "ISO_IR 100",
        "StudyID": "1",
        "StudyTime": "150404.140000",
        "TransmitCoilName": "Body",
        "VariableFlipAngleFlag": "N",
        "WindowCenterWidthExplanation": "Algo1",
        "dBdt": 0.0
      },
      "slices": {}
    },
    "modality": "bold",
    "run_id": 3,
    "subject_id": "218",
    "task_id": "cardgame",
    "time": {
      "samples": {
        "AcquisitionNumber": [
          1,
          2,
          3,
          4,
          5,
          6,
          7,
          8,
          9,
          10,
          11,
          12,
          13,
          14,
          15,
          16,
          17,
          18,
          19,
          20,
          21,
          22,
          23,
          24,
          25,
          26,
          27,
          28,
          29,
          30,
          31,
          32,
          33,
          34,
          35,
          36,
          37,
          38,
          39,
          40,
          41,
          42,
          43,
          44,
          45,
          46,
          47,
          48,
          49,
          50,
          51,
          52,
          53,
          54,
          55,
          56,
          57,
          58,
          59,
          60,
          61,
          62,
          63,
          64,
          65,
          66,
          67,
          68,
          69,
          70,
          71,
          72,
          73,
          74,
          75,
          76,
          77,
          78,
          79,
          80,
          81,
          82,
          83,
          84,
          85,
          86,
          87,
          88,
          89,
          90,
          91,
          92,
          93,
          94,
          95,
          96,
          97,
          98,
          99,
          100,
          101,
          102,
          103,
          104,
          105,
          106,
          107,
          108,
          109,
          110,
          111,
          112,
          113,
          114,
          115,
          116,
          117,
          118,
          119,
          120,
          121,
          122,
          123,
          124,
          125,
          126,
          127,
          128,
          129,
          130,
          131,
          132,
          133,
          134,
          135,
          136,
          137,
          138,
          139,
          140,
          141,
          142,
          143,
          144,
          145,
          146,
          147,
          148,
          149,
          150,
          151,
          152,
          153,
          154,
          155,
          156,
          157,
          158,
          159,
          160,
          161,
          162,
          163,
          164,
          165,
          166,
          167,
          168,
          169,
          170,
          171,
          172,
          173,
          174,
          175,
          176,
          177,
          178,
          179,
          180,
          181,
          182,
          183,
          184,
          185,
          186,
          187,
          188,
          189,
          190,
          191,
          192,
          193,
          194,
          195,
          196,
          197,
          198,
          199,
          200,
          201,
          202,
          203,
          204,
          205,
          206,
          207,
          208,
          209,
          210,
          211,
          212,
          213,
          214,
          215,
          216,
          217,
          218,
          219,
          220,
          221,
          222,
          223,
          224,
          225,
          226,
          227,
          228,
          229,
          230,
          231,
          232,
          233,
          234,
          235,
          236,
          237,
          238,
          239,
          240,
          241,
          242,
          243,
          244,
          245,
          246,
          247,
          248,
          249,
          250,
          251,
          252,
          253,
          254,
          255,
          256,
          257,
          258
        ],
        "AcquisitionTime": [
          "162353.082500",
          "162355.090000",
          "162357.097500",
          "162359.105000",
          "162401.115000",
          "162403.122500",
          "162405.130000",
          "162407.137500",
          "162409.145000",
          "162411.155000",
          "162413.162500",
          "162415.170000",
          "162417.177500",
          "162419.187500",
          "162421.195000",
          "162423.202500",
          "162425.210000",
          "162427.217500",
          "162429.227500",
          "162431.235000",
          "162433.242500",
          "162435.250000",
          "162437.257500",
          "162439.267500",
          "162441.275000",
          "162443.282500",
          "162445.290000",
          "162447.300000",
          "162449.307500",
          "162451.315000",
          "162453.322500",
          "162455.330000",
          "162457.340000",
          "162459.347500",
          "162501.355000",
          "162503.362500",
          "162505.370000",
          "162507.380000",
          "162509.387500",
          "162511.395000",
          "162513.402500",
          "162515.412500",
          "162517.420000",
          "162519.427500",
          "162521.435000",
          "162523.442500",
          "162525.452500",
          "162527.460000",
          "162529.467500",
          "162531.475000",
          "162533.482500",
          "162535.492500",
          "162537.500000",
          "162539.507500",
          "162541.515000",
          "162543.525000",
          "162545.532500",
          "162547.540000",
          "162549.547500",
          "162551.555000",
          "162553.565000",
          "162555.572500",
          "162557.580000",
          "162559.587500",
          "162601.595000",
          "162603.605000",
          "162605.612500",
          "162607.620000",
          "162609.627500",
          "162611.635000",
          "162613.645000",
          "162615.652500",
          "162617.660000",
          "162619.667500",
          "162621.677500",
          "162623.685000",
          "162625.692500",
          "162627.700000",
          "162629.707500",
          "162631.717500",
          "162633.725000",
          "162635.732500",
          "162637.740000",
          "162639.747500",
          "162641.757500",
          "162643.765000",
          "162645.772500",
          "162647.780000",
          "162649.790000",
          "162651.797500",
          "162653.805000",
          "162655.812500",
          "162657.820000",
          "162659.830000",
          "162701.837500",
          "162703.845000",
          "162705.852500",
          "162707.860000",
          "162709.870000",
          "162711.877500",
          "162713.885000",
          "162715.892500",
          "162717.902500",
          "162719.910000",
          "162721.917500",
          "162723.925000",
          "162725.932500",
          "162727.942500",
          "162729.950000",
          "162731.957500",
          "162733.965000",
          "162735.972500",
          "162737.982500",
          "162739.990000",
          "162741.997500",
          "162744.005000",
          "162746.012500",
          "162748.022500",
          "162750.030000",
          "162752.037500",
          "162754.045000",
          "162756.055000",
          "162758.062500",
          "162800.070000",
          "162802.077500",
          "162804.085000",
          "162806.095000",
          "162808.102500",
          "162810.110000",
          "162812.117500",
          "162814.125000",
          "162816.135000",
          "162818.142500",
          "162820.150000",
          "162822.157500",
          "162824.167500",
          "162826.175000",
          "162828.182500",
          "162830.190000",
          "162832.197500",
          "162834.207500",
          "162836.215000",
          "162838.222500",
          "162840.230000",
          "162842.237500",
          "162844.247500",
          "162846.255000",
          "162848.262500",
          "162850.270000",
          "162852.280000",
          "162854.287500",
          "162856.295000",
          "162858.302500",
          "162900.310000",
          "162902.320000",
          "162904.327500",
          "162906.335000",
          "162908.342500",
          "162910.350000",
          "162912.360000",
          "162914.367500",
          "162916.375000",
          "162918.382500",
          "162920.390000",
          "162922.400000",
          "162924.407500",
          "162926.415000",
          "162928.422500",
          "162930.432500",
          "162932.440000",
          "162934.447500",
          "162936.455000",
          "162938.462500",
          "162940.472500",
          "162942.480000",
          "162944.487500",
          "162946.495000",
          "162948.502500",
          "162950.512500",
          "162952.520000",
          "162954.527500",
          "162956.535000",
          "162958.545000",
          "163000.552500",
          "163002.560000",
          "163004.567500",
          "163006.575000",
          "163008.585000",
          "163010.592500",
          "163012.600000",
          "163014.607500",
          "163016.615000",
          "163018.625000",
          "163020.632500",
          "163022.640000",
          "163024.647500",
          "163026.657500",
          "163028.665000",
          "163030.672500",
          "163032.680000",
          "163034.687500",
          "163036.697500",
          "163038.705000",
          "163040.712500",
          "163042.720000",
          "163044.727500",
          "163046.737500",
          "163048.745000",
          "163050.752500",
          "163052.760000",
          "163054.767500",
          "163056.777500",
          "163058.785000",
          "163100.792500",
          "163102.800000",
          "163104.810000",
          "163106.817500",
          "163108.825000",
          "163110.832500",
          "163112.840000",
          "163114.850000",
          "163116.857500",
          "163118.865000",
          "163120.872500",
          "163122.880000",
          "163124.890000",
          "163126.897500",
          "163128.905000",
          "163130.912500",
          "163132.922500",
          "163134.930000",
          "163136.937500",
          "163138.945000",
          "163140.952500",
          "163142.962500",
          "163144.970000",
          "163146.977500",
          "163148.985000",
          "163150.992500",
          "163153.002500",
          "163155.010000",
          "163157.017500",
          "163159.025000",
          "163201.035000",
          "163203.042500",
          "163205.050000",
          "163207.057500",
          "163209.065000",
          "163211.075000",
          "163213.082500",
          "163215.090000",
          "163217.097500",
          "163219.105000",
          "163221.115000",
          "163223.122500",
          "163225.130000",
          "163227.137500",
          "163229.145000"
        ],
        "ContentTime": [
          "162446.203000",
          "162446.203000",
          "162446.203000",
          "162446.203000",
          "162446.203000",
          "162446.203000",
          "162446.218000",
          "162446.218000",
          "162446.218000",
          "162446.218000",
          "162446.218000",
          "162446.218000",
          "162446.218000",
          "162446.234000",
          "162446.234000",
          "162446.234000",
          "162446.234000",
          "162446.234000",
          "162446.234000",
          "162446.234000",
          "162446.250000",
          "162446.250000",
          "162446.250000",
          "162446.250000",
          "162446.250000",
          "162446.250000",
          "162526.187000",
          "162526.203000",
          "162526.203000",
          "162526.203000",
          "162526.203000",
          "162526.203000",
          "162526.203000",
          "162526.203000",
          "162526.218000",
          "162526.218000",
          "162526.218000",
          "162526.218000",
          "162526.218000",
          "162526.218000",
          "162526.218000",
          "162526.218000",
          "162526.234000",
          "162526.234000",
          "162526.234000",
          "162526.234000",
          "162606.187000",
          "162606.203000",
          "162606.203000",
          "162606.203000",
          "162606.203000",
          "162606.203000",
          "162606.203000",
          "162606.203000",
          "162606.218000",
          "162606.218000",
          "162606.218000",
          "162606.218000",
          "162606.218000",
          "162606.218000",
          "162606.218000",
          "162606.234000",
          "162606.234000",
          "162606.234000",
          "162606.234000",
          "162606.234000",
          "162626.187000",
          "162626.203000",
          "162626.203000",
          "162626.203000",
          "162626.203000",
          "162626.203000",
          "162626.203000",
          "162626.203000",
          "162626.218000",
          "162626.218000",
          "162706.187000",
          "162706.203000",
          "162706.203000",
          "162706.203000",
          "162706.203000",
          "162706.203000",
          "162706.203000",
          "162706.203000",
          "162706.218000",
          "162706.218000",
          "162706.218000",
          "162706.218000",
          "162706.218000",
          "162706.218000",
          "162706.218000",
          "162706.234000",
          "162706.234000",
          "162706.234000",
          "162706.234000",
          "162706.234000",
          "162746.187000",
          "162746.203000",
          "162746.203000",
          "162746.203000",
          "162746.203000",
          "162746.203000",
          "162746.203000",
          "162746.203000",
          "162746.218000",
          "162746.218000",
          "162746.218000",
          "162746.218000",
          "162746.218000",
          "162746.218000",
          "162746.218000",
          "162746.218000",
          "162746.234000",
          "162746.234000",
          "162746.234000",
          "162746.234000",
          "162826.187000",
          "162826.203000",
          "162826.203000",
          "162826.203000",
          "162826.203000",
          "162826.203000",
          "162826.203000",
          "162826.203000",
          "162826.218000",
          "162826.218000",
          "162826.218000",
          "162826.218000",
          "162826.218000",
          "162826.218000",
          "162826.218000",
          "162826.234000",
          "162826.234000",
          "162826.234000",
          "162826.234000",
          "162826.234000",
          "162906.187000",
          "162906.203000",
          "162906.203000",
          "162906.203000",
          "162906.203000",
          "162906.203000",
          "162906.203000",
          "162906.203000",
          "162906.218000",
          "162906.218000",
          "162906.218000",
          "162906.218000",
          "162906.218000",
          "162906.218000",
          "162906.218000",
          "162906.234000",
          "162906.234000",
          "162906.234000",
          "162906.234000",
          "162906.234000",
          "162946.187000",
          "162946.203000",
          "162946.203000",
          "162946.203000",
          "162946.203000",
          "162946.203000",
          "162946.218000",
          "162946.218000",
          "162946.218000",
          "162946.218000",
          "162946.218000",
          "162946.218000",
          "162946.218000",
          "162946.218000",
          "162946.234000",
          "162946.234000",
          "162946.234000",
          "162946.234000",
          "162946.234000",
          "162946.234000",
          "163026.187000",
          "163026.203000",
          "163026.203000",
          "163026.203000",
          "163026.203000",
          "163026.203000",
          "163026.203000",
          "163026.203000",
          "163026.218000",
          "163026.218000",
          "163026.218000",
          "163026.218000",
          "163026.218000",
          "163026.218000",
          "163026.218000",
          "163026.218000",
          "163026.234000",
          "163026.234000",
          "163026.234000",
          "163026.234000",
          "163106.187000",
          "163106.203000",
          "163106.203000",
          "163106.203000",
          "163106.203000",
          "163106.203000",
          "163106.203000",
          "163106.203000",
          "163106.218000",
          "163106.218000",
          "163106.218000",
          "163106.218000",
          "163106.218000",
          "163106.218000",
          "163106.218000",
          "163106.234000",
          "163106.234000",
          "163106.234000",
          "163106.234000",
          "163106.234000",
          "163146.187000",
          "163146.203000",
          "163146.203000",
          "163146.203000",
          "163146.203000",
          "163146.203000",
          "163146.203000",
          "163146.203000",
          "163146.218000",
          "163146.218000",
          "163146.218000",
          "163146.218000",
          "163146.218000",
          "163146.218000",
          "163146.218000",
          "163146.218000",
          "163146.234000",
          "163146.234000",
          "163146.234000",
          "163146.234000",
          "163226.187000",
          "163226.203000",
          "163226.203000",
          "163226.203000",
          "163226.203000",
          "163226.203000",
          "163226.203000",
          "163226.203000",
          "163226.218000",
          "163226.218000",
          "163226.218000",
          "163226.218000",
          "163226.218000",
          "163226.218000",
          "163226.218000",
          "163226.234000",
          "163226.234000",
          "163226.234000",
          "163226.234000",
          "163226.234000",
          "163228.734000",
          "163228.734000"
        ],
        "InstanceCreationTime": [
          "162446.203000",
          "162446.203000",
          "162446.203000",
          "162446.203000",
          "162446.203000",
          "162446.203000",
          "162446.218000",
          "162446.218000",
          "162446.218000",
          "162446.218000",
          "162446.218000",
          "162446.218000",
          "162446.218000",
          "162446.234000",
          "162446.234000",
          "162446.234000",
          "162446.234000",
          "162446.234000",
          "162446.234000",
          "162446.234000",
          "162446.250000",
          "162446.250000",
          "162446.250000",
          "162446.250000",
          "162446.250000",
          "162446.250000",
          "162526.187000",
          "162526.203000",
          "162526.203000",
          "162526.203000",
          "162526.203000",
          "162526.203000",
          "162526.203000",
          "162526.203000",
          "162526.218000",
          "162526.218000",
          "162526.218000",
          "162526.218000",
          "162526.218000",
          "162526.218000",
          "162526.218000",
          "162526.218000",
          "162526.234000",
          "162526.234000",
          "162526.234000",
          "162526.234000",
          "162606.187000",
          "162606.203000",
          "162606.203000",
          "162606.203000",
          "162606.203000",
          "162606.203000",
          "162606.203000",
          "162606.203000",
          "162606.218000",
          "162606.218000",
          "162606.218000",
          "162606.218000",
          "162606.218000",
          "162606.218000",
          "162606.218000",
          "162606.234000",
          "162606.234000",
          "162606.234000",
          "162606.234000",
          "162606.234000",
          "162626.187000",
          "162626.203000",
          "162626.203000",
          "162626.203000",
          "162626.203000",
          "162626.203000",
          "162626.203000",
          "162626.203000",
          "162626.218000",
          "162626.218000",
          "162706.187000",
          "162706.203000",
          "162706.203000",
          "162706.203000",
          "162706.203000",
          "162706.203000",
          "162706.203000",
          "162706.203000",
          "162706.218000",
          "162706.218000",
          "162706.218000",
          "162706.218000",
          "162706.218000",
          "162706.218000",
          "162706.218000",
          "162706.234000",
          "162706.234000",
          "162706.234000",
          "162706.234000",
          "162706.234000",
          "162746.187000",
          "162746.203000",
          "162746.203000",
          "162746.203000",
          "162746.203000",
          "162746.203000",
          "162746.203000",
          "162746.203000",
          "162746.218000",
          "162746.218000",
          "162746.218000",
          "162746.218000",
          "162746.218000",
          "162746.218000",
          "162746.218000",
          "162746.218000",
          "162746.234000",
          "162746.234000",
          "162746.234000",
          "162746.234000",
          "162826.187000",
          "162826.203000",
          "162826.203000",
          "162826.203000",
          "162826.203000",
          "162826.203000",
          "162826.203000",
          "162826.203000",
          "162826.218000",
          "162826.218000",
          "162826.218000",
          "162826.218000",
          "162826.218000",
          "162826.218000",
          "162826.218000",
          "162826.234000",
          "162826.234000",
          "162826.234000",
          "162826.234000",
          "162826.234000",
          "162906.187000",
          "162906.203000",
          "162906.203000",
          "162906.203000",
          "162906.203000",
          "162906.203000",
          "162906.203000",
          "162906.203000",
          "162906.218000",
          "162906.218000",
          "162906.218000",
          "162906.218000",
          "162906.218000",
          "162906.218000",
          "162906.218000",
          "162906.234000",
          "162906.234000",
          "162906.234000",
          "162906.234000",
          "162906.234000",
          "162946.187000",
          "162946.203000",
          "162946.203000",
          "162946.203000",
          "162946.203000",
          "162946.203000",
          "162946.218000",
          "162946.218000",
          "162946.218000",
          "162946.218000",
          "162946.218000",
          "162946.218000",
          "162946.218000",
          "162946.218000",
          "162946.234000",
          "162946.234000",
          "162946.234000",
          "162946.234000",
          "162946.234000",
          "162946.234000",
          "163026.187000",
          "163026.203000",
          "163026.203000",
          "163026.203000",
          "163026.203000",
          "163026.203000",
          "163026.203000",
          "163026.203000",
          "163026.218000",
          "163026.218000",
          "163026.218000",
          "163026.218000",
          "163026.218000",
          "163026.218000",
          "163026.218000",
          "163026.218000",
          "163026.234000",
          "163026.234000",
          "163026.234000",
          "163026.234000",
          "163106.187000",
          "163106.203000",
          "163106.203000",
          "163106.203000",
          "163106.203000",
          "163106.203000",
          "163106.203000",
          "163106.203000",
          "163106.218000",
          "163106.218000",
          "163106.218000",
          "163106.218000",
          "163106.218000",
          "163106.218000",
          "163106.218000",
          "163106.234000",
          "163106.234000",
          "163106.234000",
          "163106.234000",
          "163106.234000",
          "163146.187000",
          "163146.203000",
