{
    "AcquisitionMatrixPE": 68, 
    "AcquisitionNumber": 1, 
    "AcquisitionTime": "11:29:32.535000", 
    "BaseResolution": 68, 
    "CoilString": "C:HEA;HEP", 
    "ConversionSoftware": "dcm2niix", 
    "ConversionSoftwareVersion": "v1.0.20190902", 
    "DeviceSerialNumber": "35450", 
    "DwellTime": 2.82e-05, 
    "EchoNumber": 2, 
    "EchoTime": 0.00765, 
    "EchoTime1": 0.00519, 
    "EchoTime2": 0.00765, 
    "FlipAngle": 60, 
    "ImageOrientationPatientDICOM": [
        1, 
        0, 
        0, 
        0, 
        0.995725, 
        -0.0923706
    ], 
    "ImageType": [
        "ORIGINAL", 
        "PRIMARY", 
        "P", 
        "ND"
    ], 
    "ImagingFrequency": 123.219, 
    "InPlanePhaseEncodingDirectionDICOM": "COL", 
    "InstitutionAddress": "Univeristy_Ave._197_Newark_North_East_US_07102-1814", 
    "InstitutionName": "RUBIC", 
    "InstitutionalDepartmentName": "Department", 
    "IntendedFor": [
        "func/sub-228_task-rest_run-03_bold.nii.gz", 
        "func/sub-228_task-cardgame_run-01_bold.nii.gz", 
        "func/sub-228_task-rest_run-01_bold.nii.gz", 
        "func/sub-228_task-rest_run-04_bold.nii.gz", 
        "func/sub-228_task-rest_run-02_bold.nii.gz", 
        "func/sub-228_task-cardgame_run-02_bold.nii.gz", 
        "func/sub-228_task-cardgame_run-03_bold.nii.gz"
    ], 
    "MRAcquisitionType": "2D", 
    "MagneticFieldStrength": 3, 
    "Manufacturer": "Siemens", 
    "ManufacturersModelName": "TrioTim", 
    "Modality": "MR", 
    "PartialFourier": 1, 
    "PatientPosition": "HFS", 
    "PercentPhaseFOV": 100, 
    "PhaseEncodingDirection": "j-", 
    "PhaseEncodingSteps": 68, 
    "PhaseResolution": 1, 
    "PixelBandwidth": 261, 
    "ProcedureStepDescription": "Krekelberg_David", 
    "ProtocolName": "gre_field_mapping", 
    "PulseSequenceDetails": "%SiemensSeq%_gre_field_mapping", 
    "ReceiveCoilName": "HeadMatrix", 
    "ReconMatrixPE": 68, 
    "RepetitionTime": 0.402, 
    "SAR": 0.308486, 
    "ScanningSequence": "GR", 
    "SequenceName": "_fm2d2r", 
    "SequenceVariant": "SP", 
    "SeriesDescription": "gre_field_mapping", 
    "SeriesNumber": 4, 
    "ShimSetting": [
        1953, 
        -688, 
        -7592, 
        601, 
        79, 
        -79, 
        -271, 
        -26
    ], 
    "SliceThickness": 2.5, 
    "SliceTiming": [
        0.19531, 
        0, 
        0.21094, 
        0.00781, 
        0.21875, 
        0.01562, 
        0.23438, 
        0.03125, 
        0.24219, 
        0.03906, 
        0.25781, 
        0.05469, 
        0.26562, 
        0.0625, 
        0.27344, 
        0.07812, 
        0.28906, 
        0.08594, 
        0.29688, 
        0.10156, 
        0.3125, 
        0.10938, 
        0.32031, 
        0.125, 
        0.33594, 
        0.13281, 
        0.34375, 
        0.14062, 
        0.35938, 
        0.15625, 
        0.36719, 
        0.16406, 
        0.38281, 
        0.17969, 
        0.39062, 
        0.1875
    ], 
    "SoftwareVersions": "syngo_MR_B19", 
    "SpacingBetweenSlices": 3, 
    "StationName": "MRC35450", 
    "TxRefAmp": 348.97, 
    "dcmmeta_affine": [
        [
            -3.0, 
            0.0, 
            0.0, 
            102.0
        ], 
        [
            0.0, 
            2.9871740341186523, 
            -0.2771120071411133, 
            -73.38829803466797
        ], 
        [
            0.0, 
            0.2771117389202118, 
            2.9871749877929688, 
            -46.505008697509766
        ], 
        [
            0.0, 
            0.0, 
            0.0, 
            1.0
        ]
    ], 
    "dcmmeta_reorient_transform": [
        [
            0.0, 
            -1.0, 
            0.0, 
            67.0
        ], 
        [
            1.0, 
            0.0, 
            0.0, 
            0.0
        ], 
        [
            0.0, 
            0.0, 
            -1.0, 
            35.0
        ], 
        [
            0.0, 
            0.0, 
            0.0, 
            1.0
        ]
    ], 
    "dcmmeta_shape": [
        68, 
        68, 
        36
    ], 
    "dcmmeta_slice_dim": 2, 
    "dcmmeta_version": 0.6, 
    "global": {
        "const": {
            "AcquisitionMatrix": [
                68, 
                0, 
                0, 
                68
            ], 
            "AcquisitionNumber": 1, 
            "AngioFlag": "N", 
            "BitsAllocated": 16, 
            "BitsStored": 12, 
            "Columns": 68, 
            "EchoNumbers": 2, 
            "EchoTime": 7.65, 
            "EchoTrainLength": 1, 
            "FlipAngle": 60.0, 
            "HighBit": 11, 
            "ImageOrientationPatient": [
                1.0, 
                0.0, 
                0.0, 
                0.0, 
                0.99572469889668, 
                -0.0923705797704
            ], 
            "ImageType": [
                "ORIGINAL", 
                "PRIMARY", 
                "P", 
                "ND"
            ], 
            "ImagedNucleus": "1H", 
            "ImagingFrequency": 123.218512, 
            "InPlanePhaseEncodingDirection": "COL", 
            "MRAcquisitionType": "2D", 
            "MagneticFieldStrength": 3.0, 
            "Manufacturer": "SIEMENS", 
            "ManufacturerModelName": "TrioTim", 
            "Modality": "MR", 
            "NumberOfAverages": 1.0, 
            "NumberOfPhaseEncodingSteps": 68, 
            "PercentPhaseFieldOfView": 100.0, 
            "PercentSampling": 100.0, 
            "PerformedProcedureStepStartTime": "111557.671000", 
            "PhotometricInterpretation": "MONOCHROME2", 
            "PixelBandwidth": 261.0, 
            "PixelRepresentation": 0, 
            "PixelSpacing": [
                3.0, 
                3.0
            ], 
            "ProtocolName": "gre_field_mapping", 
            "RepetitionTime": 402.0, 
            "RescaleIntercept": -4096.0, 
            "RescaleSlope": 2.0, 
            "RescaleType": "US", 
            "Rows": 68, 
            "SAR": 0.30848602460169, 
            "SamplesPerPixel": 1, 
            "ScanningSequence": "GR", 
            "SequenceName": "*fm2d2r", 
            "SequenceVariant": "SP", 
            "SeriesDescription": "gre_field_mapping", 
            "SeriesNumber": 4, 
            "SeriesTime": "113031.687000", 
            "SliceThickness": 2.5, 
            "SoftwareVersions": "syngo MR B19", 
            "SpacingBetweenSlices": 3.0, 
            "SpecificCharacterSet": "ISO_IR 100", 
            "StudyID": "1", 
            "StudyTime": "111557.562000", 
            "TransmitCoilName": "Body", 
            "VariableFlipAngleFlag": "N", 
            "WindowCenterWidthExplanation": "Algo1", 
            "dBdt": 0.0
        }, 
        "slices": {
            "AcquisitionTime": [
                "112932.535000", 
                "112932.332500", 
                "112932.545000", 
                "112932.345000", 
                "112932.557500", 
                "112932.355000", 
                "112932.567500", 
                "112932.367500", 
                "112932.580000", 
                "112932.377500", 
                "112932.590000", 
                "112932.390000", 
                "112932.602500", 
                "112932.400000", 
                "112932.612500", 
                "112932.412500", 
                "112932.625000", 
                "112932.422500", 
                "112932.635000", 
                "112932.435000", 
                "112932.647500", 
                "112932.445000", 
                "112932.657500", 
                "112932.457500", 
                "112932.670000", 
                "112932.467500", 
                "112932.680000", 
                "112932.480000", 
                "112932.692500", 
                "112932.490000", 
                "112932.702500", 
                "112932.502500", 
                "112932.715000", 
                "112932.512500", 
                "112932.725000", 
                "112932.522500"
            ], 
            "ContentTime": [
                "113034.218000", 
                "113031.687000", 
                "113034.218000", 
                "113031.687000", 
                "113034.234000", 
                "113031.687000", 
                "113034.234000", 
                "113031.703000", 
                "113034.234000", 
                "113031.703000", 
                "113034.234000", 
                "113031.703000", 
                "113034.234000", 
                "113031.703000", 
                "113034.234000", 
                "113031.718000", 
                "113034.234000", 
                "113031.718000", 
                "113034.234000", 
                "113031.718000", 
                "113034.250000", 
                "113031.718000", 
                "113034.250000", 
                "113031.718000", 
                "113034.250000", 
                "113031.718000", 
                "113034.250000", 
                "113031.718000", 
                "113034.250000", 
                "113031.734000", 
                "113034.250000", 
                "113031.734000", 
                "113034.250000", 
                "113031.734000", 
                "113034.250000", 
                "113034.218000"
            ], 
            "CsaImage.ICE_Dims": [
                "X_2_1_1_1_1_1_19_1_1_1_1_16", 
                "X_2_1_1_1_1_1_1_1_1_2_1_16", 
                "X_2_1_1_1_1_1_20_1_1_3_1_16", 
                "X_2_1_1_1_1_1_2_1_1_4_1_16", 
                "X_2_1_1_1_1_1_21_1_1_5_1_16", 
                "X_2_1_1_1_1_1_3_1_1_6_1_16", 
                "X_2_1_1_1_1_1_22_1_1_7_1_16", 
                "X_2_1_1_1_1_1_4_1_1_8_1_16", 
                "X_2_1_1_1_1_1_23_1_1_9_1_16", 
                "X_2_1_1_1_1_1_5_1_1_10_1_16", 
                "X_2_1_1_1_1_1_24_1_1_11_1_16", 
                "X_2_1_1_1_1_1_6_1_1_12_1_16", 
                "X_2_1_1_1_1_1_25_1_1_13_1_16", 
                "X_2_1_1_1_1_1_7_1_1_14_1_16", 
                "X_2_1_1_1_1_1_26_1_1_15_1_16", 
                "X_2_1_1_1_1_1_8_1_1_16_1_16", 
                "X_2_1_1_1_1_1_27_1_1_17_1_16", 
                "X_2_1_1_1_1_1_9_1_1_18_1_16", 
                "X_2_1_1_1_1_1_28_1_1_19_1_16", 
                "X_2_1_1_1_1_1_10_1_1_20_1_16", 
                "X_2_1_1_1_1_1_29_1_1_21_1_16", 
                "X_2_1_1_1_1_1_11_1_1_22_1_16", 
                "X_2_1_1_1_1_1_30_1_1_23_1_16", 
                "X_2_1_1_1_1_1_12_1_1_24_1_16", 
                "X_2_1_1_1_1_1_31_1_1_25_1_16", 
                "X_2_1_1_1_1_1_13_1_1_26_1_16", 
                "X_2_1_1_1_1_1_32_1_1_27_1_16", 
                "X_2_1_1_1_1_1_14_1_1_28_1_16", 
                "X_2_1_1_1_1_1_33_1_1_29_1_16", 
                "X_2_1_1_1_1_1_15_1_1_30_1_16", 
                "X_2_1_1_1_1_1_34_1_1_31_1_16", 
                "X_2_1_1_1_1_1_16_1_1_32_1_16", 
                "X_2_1_1_1_1_1_35_1_1_33_1_16", 
                "X_2_1_1_1_1_1_17_1_1_34_1_16", 
                "X_2_1_1_1_1_1_36_1_1_35_1_16", 
                "X_2_1_1_1_1_1_18_1_1_36_1_16"
            ], 
            "CsaImage.ProtocolSliceNumber": [
                0, 
                1, 
                2, 
                3, 
                4, 
                5, 
                6, 
                7, 
                8, 
                9, 
                10, 
                11, 
                12, 
                13, 
                14, 
                15, 
                16, 
                17, 
                18, 
                19, 
                20, 
                21, 
                22, 
                23, 
                24, 
                25, 
                26, 
                27, 
                28, 
                29, 
                30, 
                31, 
                32, 
                33, 
                34, 
                35
            ], 
            "CsaImage.SliceMeasurementDuration": [
                54085.0, 
                54085.0, 
                54085.0, 
                54082.5, 
                54085.0, 
                54085.0, 
                54085.0, 
                54082.5, 
                54085.0, 
                54085.0, 
                54085.0, 
                54082.5, 
                54085.0, 
                54085.0, 
                54085.0, 
                54082.5, 
                54085.0, 
                54085.0, 
                54085.0, 
                54082.5, 
                54085.0, 
                54085.0, 
                54085.0, 
                54082.5, 
                54082.5, 
                54085.0, 
                54085.0, 
                54082.5, 
                54082.5, 
                54085.0, 
                54085.0, 
                54082.5, 
                54082.5, 
                54085.0, 
                54085.0, 
                54085.0
            ], 
            "CsaImage.SlicePosition_PCS": [
                [
                    -102.0, 
                    -126.75235961, 
                    -27.93849139
                ], 
                [
                    -102.0, 
                    -126.47524665, 
                    -24.95132022
                ], 
                [
                    -102.0, 
                    -126.1981356, 
                    -21.96414523
                ], 
                [
                    -102.0, 
                    -125.92102264, 
                    -18.97697024
                ], 
                [
                    -102.0, 
                    -125.64391158, 
                    -15.98979716
                ], 
                [
                    -102.0, 
                    -125.36680053, 
                    -13.00262217
                ], 
                [
                    -102.0, 
                    -125.08968757, 
                    -10.01544909
                ], 
                [
                    -102.0, 
                    -124.81257651, 
                    -7.02827411
                ], 
                [
                    -102.0, 
                    -124.53546546, 
                    -4.04110007
                ], 
                [
                    -102.0, 
                    -124.2583525, 
                    -1.05392604
                ], 
                [
                    -102.0, 
                    -123.98124145, 
                    1.933248
                ], 
                [
                    -102.0, 
                    -123.70412849, 
                    4.92042203
                ], 
                [
                    -102.0, 
                    -123.42701743, 
                    7.9075963
                ], 
                [
                    -102.0, 
                    -123.14990638, 
                    10.89477034
                ], 
                [
                    -102.0, 
                    -122.87279342, 
                    13.88194461
                ], 
                [
                    -102.0, 
                    -122.59568236, 
                    16.86911864
                ], 
                [
                    -102.0, 
                    -122.31857131, 
                    19.8562922
                ], 
                [
                    -102.0, 
                    -122.04145835, 
                    22.84346719
                ], 
                [
                    -102.0, 
                    -121.7643473, 
                    25.83064122
                ], 
                [
                    -102.0, 
                    -121.48723434, 
                    28.8178143
                ], 
                [
                    -102.0, 
                    -121.21012328, 
                    31.80498929
                ], 
                [
                    -102.0, 
                    -120.93301223, 
                    34.79216237
                ], 
                [
                    -102.0, 
                    -120.65589927, 
                    37.77933736
                ], 
                [
                    -102.0, 
                    -120.37878821, 
                    40.76651044
                ], 
                [
                    -102.0, 
                    -120.10167716, 
                    43.75368543
                ], 
                [
                    -102.0, 
                    -119.8245642, 
                    46.74086042
                ], 
                [
                    -102.0, 
                    -119.54745315, 
                    49.7280354
                ], 
                [
                    -102.0, 
                    -119.27034209, 
                    52.71520658
                ], 
                [
                    -102.0, 
                    -118.99322913, 
                    55.70238156
                ], 
                [
                    -102.0, 
                    -118.71611808, 
                    58.68955655
                ], 
                [
                    -102.0, 
                    -118.43900512, 
                    61.67673154
                ], 
                [
                    -102.0, 
                    -118.16189406, 
                    64.66390271
                ], 
                [
                    -102.0, 
                    -117.88478301, 
                    67.6510777
                ], 
                [
                    -102.0, 
                    -117.60767005, 
                    70.63825269
                ], 
                [
                    -102.0, 
                    -117.330559, 
                    73.62542768
                ], 
                [
                    -102.0, 
                    -117.05344699, 
                    76.61260266
                ]
            ], 
            "CsaImage.TimeAfterStart": [
                0.6075, 
                0.4075, 
                0.62, 
                0.4175, 
                0.63, 
                0.43, 
                0.6425, 
                0.44, 
                0.6525, 
                0.4525, 
                0.665, 
                0.4625, 
                0.675, 
                0.4725, 
                0.6875, 
                0.485, 
                0.6975, 
                0.495, 
                0.71, 
                0.5075, 
                0.72, 
                0.5175, 
                0.7325, 
                0.53, 
                0.7425, 
                0.54, 
                0.755, 
                0.5525, 
                0.765, 
                0.5625, 
                0.775, 
                0.575, 
                0.7875, 
                0.585, 
                0.7975, 
                0.5975
            ], 
            "ImagePositionPatient": [
                [
                    -102.0, 
                    -126.75235961034, 
                    -27.938491390767
                ], 
                [
                    -102.0, 
                    -126.47524664952, 
                    -24.951320217672
                ], 
                [
                    -102.0, 
                    -126.19813559606, 
                    -21.964145229879
                ], 
                [
                    -102.0, 
                    -125.92102263524, 
                    -18.976970242086
                ], 
                [
                    -102.0, 
                    -125.64391158177, 
                    -15.989797161641
                ], 
                [
                    -102.0, 
                    -125.36680052831, 
                    -13.002622173848
                ], 
                [
                    -102.0, 
                    -125.08968756749, 
                    -10.015449093404
                ], 
                [
                    -102.0, 
                    -124.81257651402, 
                    -7.028274105611
                ], 
                [
                    -102.0, 
                    -124.53546546056, 
                    -4.0411000714923
                ], 
                [
                    -102.0, 
                    -124.25835249974, 
                    -1.0539260373737
                ], 
                [
                    -102.0, 
                    -123.98124144627, 
                    1.933247996745
                ], 
                [
                    -102.0, 
                    -123.70412848546, 
                    4.9204220308636
                ], 
                [
                    -102.0, 
                    -123.42701743199, 
                    7.9075963034009
                ], 
                [
                    -102.0, 
                    -123.14990637853, 
                    10.89477033752
                ], 
                [
                    -102.0, 
                    -122.87279341771, 
                    13.881944610057
                ], 
                [
                    -102.0, 
                    -122.59568236424, 
                    16.869118644175
                ], 
                [
                    -102.0, 
                    -122.31857131078, 
                    19.856292201457
                ], 
                [
                    -102.0, 
                    -122.04145834996, 
                    22.84346718925
                ], 
                [
                    -102.0, 
                    -121.76434729649, 
                    25.830641223369
                ], 
                [
                    -102.0, 
                    -121.48723433568, 
                    28.817814303813
                ], 
                [
                    -102.0, 
                    -121.21012328221, 
                    31.804989291606
                ], 
                [
                    -102.0, 
                    -120.93301222875, 
                    34.79216237205
                ], 
                [
                    -102.0, 
                    -120.65589926793, 
                    37.779337359843
                ], 
                [
                    -102.0, 
                    -120.37878821446, 
                    40.766510440287
                ], 
                [
                    -102.0, 
                    -120.101677161, 
                    43.75368542808
                ], 
                [
                    -102.0, 
                    -119.82456420018, 
                    46.740860415873
                ], 
                [
                    -102.0, 
                    -119.54745314671, 
                    49.728035403666
                ], 
                [
                    -102.0, 
                    -119.27034209325, 
                    52.715206576762
                ], 
                [
                    -102.0, 
                    -118.99322913243, 
                    55.702381564555
                ], 
                [
                    -102.0, 
                    -118.71611807897, 
                    58.689556552348
                ], 
                [
                    -102.0, 
                    -118.43900511815, 
                    61.676731540141
                ], 
                [
                    -102.0, 
                    -118.16189406468, 
                    64.663902713237
                ], 
                [
                    -102.0, 
                    -117.88478301122, 
                    67.65107770103
                ], 
                [
                    -102.0, 
                    -117.6076700504, 
                    70.638252688823
                ], 
                [
                    -102.0, 
                    -117.33055899693, 
                    73.625427676616
                ], 
                [
                    -102.0, 
                    -117.05344698979, 
                    76.612602664409
                ]
            ], 
            "InstanceCreationTime": [
                "113034.218000", 
                "113031.687000", 
                "113034.218000", 
                "113031.687000", 
                "113034.234000", 
                "113031.687000", 
                "113034.234000", 
                "113031.703000", 
                "113034.234000", 
                "113031.703000", 
                "113034.234000", 
                "113031.703000", 
                "113034.234000", 
                "113031.703000", 
                "113034.234000", 
                "113031.718000", 
                "113034.234000", 
                "113031.718000", 
                "113034.234000", 
                "113031.718000", 
                "113034.250000", 
                "113031.718000", 
                "113034.250000", 
                "113031.718000", 
                "113034.250000", 
                "113031.718000", 
                "113034.250000", 
                "113031.718000", 
                "113034.250000", 
                "113031.734000", 
                "113034.250000", 
                "113031.734000", 
                "113034.250000", 
                "113031.734000", 
                "113034.250000", 
                "113034.218000"
            ], 
            "InstanceNumber": [
                1, 
                2, 
                3, 
                4, 
                5, 
                6, 
                7, 
                8, 
                9, 
                10, 
                11, 
                12, 
                13, 
                14, 
                15, 
                16, 
                17, 
                18, 
                19, 
                20, 
                21, 
                22, 
                23, 
                24, 
                25, 
                26, 
                27, 
                28, 
                29, 
                30, 
                31, 
                32, 
                33, 
                34, 
                35, 
                36
            ], 
            "LargestImagePixelValue": [
                4093, 
                4093, 
                4092, 
                4085, 
                4093, 
                4093, 
                4090, 
                4093, 
                4071, 
                4071, 
                4091, 
                4094, 
                4094, 
                4093, 
                4090, 
                4094, 
                4092, 
                4093, 
                4089, 
                4094, 
                4089, 
                4090, 
                4067, 
                4091, 
                4093, 
                4088, 
                4094, 
                4091, 
                4092, 
                4092, 
                4092, 
                4094, 
                4091, 
                4094, 
                4094, 
                4093
            ], 
            "SliceLocation": [
                -39.527234872167, 
                -36.527237670431, 
                -33.52723684649, 
                -30.527235846365, 
                -27.527236921618, 
                -24.527236097677, 
                -21.527236996747, 
                -18.527236172805, 
                -15.527236298461, 
                -12.527236247934, 
                -9.5272363735897, 
                -6.5272363230625, 
                -3.5272362113189, 
                -0.5272363369746, 
                2.4727639509518, 
                5.4727638252961, 
                8.4727632248419, 
                11.472764224966, 
                14.47276409931, 
                17.472763200241, 
                20.472764024182, 
                23.472762948929, 
                26.472763949053, 
                29.472762873801, 
                32.472763697742, 
                35.472764697866, 
                38.472765521808, 
                41.472762547361, 
                44.472763547485, 
                47.472764371426, 
                50.47276537155, 
                53.472762397104, 
                56.472763221045, 
                59.472764221169, 
                62.47276504511, 
                65.472765957143
            ], 
            "SmallestImagePixelValue": [
                1, 
                0, 
                2, 
                2, 
                0, 
                11, 
                10, 
                0, 
                0, 
                1, 
                7, 
                1, 
                3, 
                0, 
                1, 
                0, 
                29, 
                4, 
                3, 
                4, 
                12, 
                7, 
                12, 
                3, 
                6, 
                18, 
                12, 
                0, 
                7, 
                2, 
                6, 
                0, 
                0, 
                0, 
                2, 
                1
            ], 
            "WindowCenter": [
                -320.0, 
                -338.0, 
                -396.0, 
                -352.0, 
                -294.0, 
                -196.0, 
                -198.0, 
                -198.0, 
                -256.0, 
                -256.0, 
                -198.0, 
                -186.0, 
                -134.0, 
                -120.0, 
                -60.0, 
                -60.0, 
                -24.0, 
                -162.0, 
                -168.0, 
                -166.0, 
                -172.0, 
                -192.0, 
                -198.0, 
                -196.0, 
                -188.0, 
                -206.0, 
                -218.0, 
                -230.0, 
                -152.0, 
                -290.0, 
                -246.0, 
                -150.0, 
                -206.0, 
                -178.0, 
                -214.0, 
                -280.0
            ], 
            "WindowWidth": [
                6022.0, 
                5964.0, 
                5884.0, 
                5832.0, 
