{
  "AcquisitionMatrixPE": 68,
  "AcquisitionNumber": 1,
  "AcquisitionTime": "11:01:38.867500",
  "BandwidthPerPixelPhaseEncode": 31.289,
  "BaseResolution": 68,
  "CoilString": "C:HEA;HEP",
  "ConversionSoftware": "dcm2niix",
  "ConversionSoftwareVersion": "v1.0.20190902",
  "DerivedVendorReportedEchoSpacing": 0.000470002,
  "DeviceSerialNumber": "35450",
  "DwellTime": 3e-06,
  "EchoTime": 0.023,
  "EffectiveEchoSpacing": 0.000470002,
  "FlipAngle": 76,
  "ImageOrientationPatientDICOM": [0.999987, 0.000730374, 0.00513201, 2.94115e-08, 0.990023, -0.140903],
  "ImageType": [
    "ORIGINAL",
    "PRIMARY",
    "M",
    "ND",
    "MOSAIC"
],
  "ImagingFrequency": 123.218,
  "InPlanePhaseEncodingDirectionDICOM": "COL",
  "InstitutionAddress": "Univeristy_Ave._197_Newark_North_East_US_07102-1814",
  "InstitutionName": "RUBIC",
  "InstitutionalDepartmentName": "Department",
  "MRAcquisitionType": "2D",
  "MagneticFieldStrength": 3,
  "Manufacturer": "Siemens",
  "ManufacturersModelName": "TrioTim",
  "Modality": "MR",
  "PartialFourier": 1,
  "PatientPosition": "HFS",
  "PercentPhaseFOV": 100,
  "PhaseEncodingDirection": "j-",
  "PhaseEncodingSteps": 68,
  "PhaseResolution": 1,
  "PixelBandwidth": 2451,
  "ProcedureStepDescription": "Krekelberg_David",
  "ProtocolName": "ep2d_bold_CardGameEPI_2",
  "PulseSequenceDetails": "%SiemensSeq%_ep2d_bold",
  "ReceiveCoilName": "HeadMatrix",
  "ReconMatrixPE": 68,
  "RepetitionTime": 2,
  "SAR": 0.168889,
  "ScanOptions": "FS",
  "ScanningSequence": "EP",
  "SequenceName": "_epfid2d1_68",
  "SequenceVariant": "SK",
  "SeriesDescription": "ep2d_bold_CardGameEPI_2",
  "SeriesNumber": 7,
  "ShimSetting": [1933, -628, -7617, 720, 27, 286, -151, -113],
  "SliceThickness": 2.5,
  "SliceTiming": [1.95, 1.895, 1.84, 1.785, 1.7275, 1.6725, 1.6175, 1.56, 1.505, 1.45, 1.3925, 1.3375, 1.2825, 1.2275, 1.17, 1.115, 1.06, 1.0025, 0.9475, 0.8925, 0.835, 0.78, 0.725, 0.6675, 0.6125, 0.5575, 0.5025, 0.445, 0.39, 0.335, 0.2775, 0.2225, 0.1675, 0.11, 0.055, 0],
  "SoftwareVersions": "syngo_MR_B19",
  "SpacingBetweenSlices": 3,
  "StationName": "MRC35450",
  "TaskName": "cardgame",
  "TotalReadoutTime": 0.0314901,
  "TxRefAmp": 347.22,
  "dcmmeta_affine": [
    [-2.999959707260132, 8.823447927852612e-08, 0.015551166608929634, 101.74214172363281],
    [-0.002191120758652687, 2.9700701236724854, -0.42270368337631226, -72.23542022705078],
    [0.01539603155106306, 0.4227093756198883, 2.9700303077697754, -52.21115493774414],
    [0.0, 0.0, 0.0, 1.0]
],
  "dcmmeta_reorient_transform": [
    [0.0, -1.0, 0.0, 67.0],
    [1.0, 0.0, 0.0, 0.0],
    [0.0, 0.0, 1.0, 0.0],
    [0.0, 0.0, 0.0, 1.0]
],
  "dcmmeta_shape": [68, 68, 36, 258],
  "dcmmeta_slice_dim": 2,
  "dcmmeta_version": 0.6,
  "global": {
    "const": {
      "AcquisitionMatrix": [68, 0, 0, 68],
      "AngioFlag": "N",
      "BitsAllocated": 16,
      "BitsStored": 12,
      "Columns": 408,
      "EchoNumbers": 1,
      "EchoTime": 23.0,
      "EchoTrainLength": 1,
      "FlipAngle": 76.0,
      "HighBit": 11,
      "ImageOrientationPatient": [0.99998656442071, 0.0007303735784, 0.00513201057084, 2.9411492e-08, 0.99002338804893, -0.1409031267081],
      "ImagePositionPatient": [-611.73531127442, -632.04370232345, 45.353641826024],
      "ImageType": [
        "ORIGINAL",
        "PRIMARY",
        "M",
        "ND",
        "MOSAIC"
],
      "ImagedNucleus": "1H",
      "ImagingFrequency": 123.218467,
      "InPlanePhaseEncodingDirection": "COL",
      "MRAcquisitionType": "2D",
      "MagneticFieldStrength": 3.0,
      "Manufacturer": "SIEMENS",
      "ManufacturerModelName": "TrioTim",
      "Modality": "MR",
      "NumberOfAverages": 1.0,
      "NumberOfPhaseEncodingSteps": 68,
      "PercentPhaseFieldOfView": 100.0,
      "PercentSampling": 100.0,
      "PerformedProcedureStepStartTime": "101123.890000",
      "PhotometricInterpretation": "MONOCHROME2",
      "PixelBandwidth": 2451.0,
      "PixelRepresentation": 0,
      "PixelSpacing": [3.0, 3.0],
      "ProtocolName": "ep2d_bold_CardGameEPI_2",
      "RepetitionTime": 2000.0,
      "Rows": 408,
      "SAR": 0.1688890748079,
      "SamplesPerPixel": 1,
      "ScanOptions": "FS",
      "ScanningSequence": "EP",
      "SequenceName": "*epfid2d1_68",
      "SequenceVariant": "SK",
      "SeriesDescription": "ep2d_bold_CardGameEPI_2",
      "SeriesNumber": 7,
      "SeriesTime": "110222.437000",
      "SliceLocation": -40.984108526347,
      "SliceThickness": 2.5,
      "SmallestImagePixelValue": 0,
      "SoftwareVersions": "syngo MR B19",
      "SpacingBetweenSlices": 2.9999999555374,
      "SpecificCharacterSet": "ISO_IR 100",
      "StudyID": "1",
      "StudyTime": "101123.796000",
      "TransmitCoilName": "Body",
      "VariableFlipAngleFlag": "N",
      "WindowCenterWidthExplanation": "Algo1",
      "dBdt": 0.0},
    "slices": {}
  },
  "time": {
    "samples": {
      "AcquisitionNumber": [1, 2, 3, 4, 5, 6, 7, 8, 9, 10, 11, 12, 13, 14, 15, 16, 17, 18, 19, 20, 21, 22, 23, 24, 25, 26, 27, 28, 29, 30, 31, 32, 33, 34, 35, 36, 37, 38, 39, 40, 41, 42, 43, 44, 45, 46, 47, 48, 49, 50, 51, 52, 53, 54, 55, 56, 57, 58, 59, 60, 61, 62, 63, 64, 65, 66, 67, 68, 69, 70, 71, 72, 73, 74, 75, 76, 77, 78, 79, 80, 81, 82, 83, 84, 85, 86, 87, 88, 89, 90, 91, 92, 93, 94, 95, 96, 97, 98, 99, 100, 101, 102, 103, 104, 105, 106, 107, 108, 109, 110, 111, 112, 113, 114, 115, 116, 117, 118, 119, 120, 121, 122, 123, 124, 125, 126, 127, 128, 129, 130, 131, 132, 133, 134, 135, 136, 137, 138, 139, 140, 141, 142, 143, 144, 145, 146, 147, 148, 149, 150, 151, 152, 153, 154, 155, 156, 157, 158, 159, 160, 161, 162, 163, 164, 165, 166, 167, 168, 169, 170, 171, 172, 173, 174, 175, 176, 177, 178, 179, 180, 181, 182, 183, 184, 185, 186, 187, 188, 189, 190, 191, 192, 193, 194, 195, 196, 197, 198, 199, 200, 201, 202, 203, 204, 205, 206, 207, 208, 209, 210, 211, 212, 213, 214, 215, 216, 217, 218, 219, 220, 221, 222, 223, 224, 225, 226, 227, 228, 229, 230, 231, 232, 233, 234, 235, 236, 237, 238, 239, 240, 241, 242, 243, 244, 245, 246, 247, 248, 249, 250, 251, 252, 253, 254, 255, 256, 257, 258],
      "AcquisitionTime": ["110138.867500", "110140.877500", "110142.885000", "110144.892500", "110146.900000", "110148.910000", "110150.917500", "110152.925000", "110154.932500", "110156.940000", "110158.950000", "110200.957500", "110202.965000", "110204.972500", "110206.980000", "110208.990000", "110210.997500", "110213.005000", "110215.012500", "110217.022500", "110219.030000", "110221.037500", "110223.045000", "110225.052500", "110227.062500", "110229.070000", "110231.077500", "110233.085000", "110235.092500", "110237.102500", "110239.110000", "110241.117500", "110243.125000", "110245.135000", "110247.142500", "110249.150000", "110251.157500", "110253.165000", "110255.175000", "110257.182500", "110259.190000", "110301.197500", "110303.205000", "110305.215000", "110307.222500", "110309.230000", "110311.237500", "110313.245000", "110315.255000", "110317.262500", "110319.270000", "110321.277500", "110323.287500", "110325.295000", "110327.302500", "110329.310000", "110331.317500", "110333.327500", "110335.335000", "110337.342500", "110339.350000", "110341.357500", "110343.367500", "110345.375000", "110347.382500", "110349.390000", "110351.400000", "110353.407500", "110355.415000", "110357.422500", "110359.430000", "110401.440000", "110403.447500", "110405.455000", "110407.462500", "110409.470000", "110411.480000", "110413.487500", "110415.495000", "110417.502500", "110419.512500", "110421.520000", "110423.527500", "110425.535000", "110427.542500", "110429.552500", "110431.560000", "110433.567500", "110435.575000", "110437.582500", "110439.592500", "110441.600000", "110443.607500", "110445.615000", "110447.622500", "110449.632500", "110451.640000", "110453.647500", "110455.655000", "110457.665000", "110459.672500", "110501.680000", "110503.687500", "110505.695000", "110507.705000", "110509.712500", "110511.720000", "110513.727500", "110515.735000", "110517.745000", "110519.752500", "110521.760000", "110523.767500", "110525.777500", "110527.785000", "110529.792500", "110531.800000", "110533.807500", "110535.817500", "110537.825000", "110539.832500", "110541.840000", "110543.847500", "110545.857500", "110547.865000", "110549.872500", "110551.880000", "110553.890000", "110555.897500", "110557.905000", "110559.912500", "110601.920000", "110603.930000", "110605.937500", "110607.945000", "110609.952500", "110611.960000", "110613.970000", "110615.977500", "110617.985000", "110619.992500", "110622.000000", "110624.010000", "110626.017500", "110628.025000", "110630.032500", "110632.042500", "110634.050000", "110636.057500", "110638.065000", "110640.072500", "110642.082500", "110644.090000", "110646.097500", "110648.105000", "110650.112500", "110652.122500", "110654.130000", "110656.137500", "110658.145000", "110700.155000", "110702.162500", "110704.170000", "110706.177500", "110708.185000", "110710.195000", "110712.202500", "110714.210000", "110716.217500", "110718.225000", "110720.235000", "110722.242500", "110724.250000", "110726.257500", "110728.267500", "110730.275000", "110732.282500", "110734.290000", "110736.297500", "110738.307500", "110740.315000", "110742.322500", "110744.330000", "110746.337500", "110748.347500", "110750.355000", "110752.362500", "110754.370000", "110756.377500", "110758.387500", "110800.395000", "110802.402500", "110804.410000", "110806.420000", "110808.427500", "110810.435000", "110812.442500", "110814.450000", "110816.460000", "110818.467500", "110820.475000", "110822.482500", "110824.490000", "110826.500000", "110828.507500", "110830.515000", "110832.522500", "110834.532500", "110836.540000", "110838.547500", "110840.555000", "110842.562500", "110844.572500", "110846.580000", "110848.587500", "110850.595000", "110852.602500", "110854.612500", "110856.620000", "110858.627500", "110900.635000", "110902.645000", "110904.652500", "110906.660000", "110908.667500", "110910.675000", "110912.685000", "110914.692500", "110916.700000", "110918.707500", "110920.715000", "110922.725000", "110924.732500", "110926.740000", "110928.747500", "110930.755000", "110932.765000", "110934.772500", "110936.780000", "110938.787500", "110940.797500", "110942.805000", "110944.812500", "110946.820000", "110948.827500", "110950.837500", "110952.845000", "110954.852500", "110956.860000", "110958.867500", "111000.877500", "111002.885000", "111004.892500", "111006.900000", "111008.910000", "111010.917500", "111012.925000", "111014.932500"],
      "ContentTime": ["110222.437000", "110222.453000", "110222.453000", "110222.453000", "110222.453000", "110222.453000", "110222.453000", "110222.453000", "110222.468000", "110222.468000", "110222.468000", "110222.468000", "110222.468000", "110222.468000", "110222.468000", "110222.468000", "110222.484000", "110222.484000", "110222.484000", "110222.484000", "110222.484000", "110302.437000", "110302.437000", "110302.437000", "110302.437000", "110302.453000", "110302.453000", "110302.453000", "110302.453000", "110302.453000", "110302.453000", "110302.453000", "110302.468000", "110302.468000", "110302.468000", "110302.468000", "110302.468000", "110302.468000", "110302.468000", "110302.468000", "110302.484000", "110342.437000", "110342.437000", "110342.437000", "110342.437000", "110342.453000", "110342.453000", "110342.453000", "110342.453000", "110342.453000", "110342.453000", "110342.453000", "110342.468000", "110342.468000", "110342.468000", "110342.468000", "110342.468000", "110342.468000", "110342.468000", "110342.468000", "110342.484000", "110422.437000", "110422.437000", "110422.437000", "110422.437000", "110422.453000", "110422.453000", "110422.453000", "110422.453000", "110422.453000", "110422.453000", "110422.453000", "110422.468000", "110422.468000", "110422.468000", "110422.468000", "110422.468000", "110422.468000", "110422.468000", "110422.468000", "110422.484000", "110502.437000", "110502.437000", "110502.437000", "110502.437000", "110502.453000", "110502.453000", "110502.453000", "110502.453000", "110502.453000", "110502.453000", "110502.453000", "110502.468000", "110502.468000", "110502.468000", "110502.468000", "110502.468000", "110502.468000", "110502.468000", "110502.484000", "110502.484000", "110542.437000", "110542.437000", "110542.437000", "110542.437000", "110542.453000", "110542.453000", "110542.453000", "110542.453000", "110542.453000", "110542.453000", "110542.453000", "110542.468000", "110542.468000", "110542.468000", "110542.468000", "110542.468000", "110542.468000", "110542.468000", "110542.468000", "110542.484000", "110622.437000", "110622.437000", "110622.437000", "110622.437000", "110622.453000", "110622.453000", "110622.453000", "110622.453000", "110622.453000", "110622.453000", "110622.453000", "110622.468000", "110622.468000", "110622.468000", "110622.468000", "110622.468000", "110622.468000", "110622.468000", "110622.468000", "110622.484000", "110702.437000", "110702.437000", "110702.437000", "110702.437000", "110702.453000", "110702.453000", "110702.453000", "110702.453000", "110702.453000", "110702.453000", "110702.453000", "110702.468000", "110702.468000", "110702.468000", "110702.468000", "110702.468000", "110702.468000", "110702.468000", "110702.468000", "110702.484000", "110742.437000", "110742.437000", "110742.437000", "110742.437000", "110742.453000", "110742.453000", "110742.453000", "110742.453000", "110742.468000", "110742.468000", "110742.468000", "110742.468000", "110742.468000", "110742.484000", "110742.484000", "110742.484000", "110742.484000", "110742.484000", "110742.484000", "110742.484000", "110822.437000", "110822.437000", "110822.437000", "110822.437000", "110822.453000", "110822.453000", "110822.453000", "110822.453000", "110822.453000", "110822.453000", "110822.453000", "110822.453000", "110822.468000", "110822.468000", "110822.468000", "110822.468000", "110822.468000", "110822.468000", "110822.468000", "110822.484000", "110902.437000", "110902.437000", "110902.437000", "110902.437000", "110902.453000", "110902.453000", "110902.453000", "110902.453000", "110902.453000", "110902.453000", "110902.453000", "110902.468000", "110902.468000", "110902.468000", "110902.468000", "110902.468000", "110902.468000", "110902.468000", "110902.468000", "110902.484000", "110942.437000", "110942.437000", "110942.437000", "110942.437000", "110942.453000", "110942.453000", "110942.453000", "110942.453000", "110942.453000", "110942.453000", "110942.453000", "110942.468000", "110942.468000", "110942.468000", "110942.468000", "110942.468000", "110942.468000", "110942.468000", "110942.468000", "110942.484000", "111014.812000", "111014.812000", "111014.812000", "111014.812000", "111014.812000", "111014.812000", "111014.828000", "111014.828000", "111014.828000", "111014.828000", "111014.828000", "111014.828000", "111014.828000", "111014.828000", "111014.843000", "111014.843000", "111014.843000"],
      "InstanceCreationTime": ["110222.437000", "110222.453000", "110222.453000", "110222.453000", "110222.453000", "110222.453000", "110222.453000", "110222.453000", "110222.468000", "110222.468000", "110222.468000", "110222.468000", "110222.468000", "110222.468000", "110222.468000", "110222.468000", "110222.484000", "110222.484000", "110222.484000", "110222.484000", "110222.484000", "110302.437000", "110302.437000", "110302.437000", "110302.437000", "110302.453000", "110302.453000", "110302.453000", "110302.453000", "110302.453000", "110302.453000", "110302.453000", "110302.468000", "110302.468000", "110302.468000", "110302.468000", "110302.468000", "110302.468000", "110302.468000", "110302.468000", "110302.484000", "110342.437000", "110342.437000", "110342.437000", "110342.437000", "110342.453000", "110342.453000", "110342.453000", "110342.453000", "110342.453000", "110342.453000", "110342.453000", "110342.468000", "110342.468000", "110342.468000", "110342.468000", "110342.468000", "110342.468000", "110342.468000", "110342.468000", "110342.484000", "110422.437000", "110422.437000", "110422.437000", "110422.437000", "110422.453000", "110422.453000", "110422.453000", "110422.453000", "110422.453000", "110422.453000", "110422.453000", "110422.468000", "110422.468000", "110422.468000", "110422.468000", "110422.468000", "110422.468000", "110422.468000", "110422.468000", "110422.484000", "110502.437000", "110502.437000", "110502.437000", "110502.437000", "110502.453000", "110502.453000", "110502.453000", "110502.453000", "110502.453000", "110502.453000", "110502.453000", "110502.468000", "110502.468000", "110502.468000", "110502.468000", "110502.468000", "110502.468000", "110502.468000", "110502.484000", "110502.484000", "110542.437000", "110542.437000", "110542.437000", "110542.437000", "110542.453000", "110542.453000", "110542.453000", "110542.453000", "110542.453000", "110542.453000", "110542.453000", "110542.468000", "110542.468000", "110542.468000", "110542.468000", "110542.468000", "110542.468000", "110542.468000", "110542.468000", "110542.484000", "110622.437000", "110622.437000", "110622.437000", "110622.437000", "110622.453000", "110622.453000", "110622.453000", "110622.453000", "110622.453000", "110622.453000", "110622.453000", "110622.468000", "110622.468000", "110622.468000", "110622.468000", "110622.468000", "110622.468000", "110622.468000", "110622.468000", "110622.484000", "110702.437000", "110702.437000", "110702.437000", "110702.437000", "110702.453000", "110702.453000", "110702.453000", "110702.453000", "110702.453000", "110702.453000", "110702.453000", "110702.468000", "110702.468000", "110702.468000", "110702.468000", "110702.468000", "110702.468000", "110702.468000", "110702.468000", "110702.484000", "110742.437000", "110742.437000", "110742.437000", "110742.437000", "110742.453000", "110742.453000", "110742.453000", "110742.453000", "110742.468000", "110742.468000", "110742.468000", "110742.468000", "110742.468000", "110742.484000", "110742.484000", "110742.484000", "110742.484000", "110742.484000", "110742.484000", "110742.484000", "110822.437000", "110822.437000", "110822.437000", "110822.437000", "110822.453000", "110822.453000", "110822.453000", "110822.453000", "110822.453000", "110822.453000", "110822.453000", "110822.453000", "110822.468000", "110822.468000", "110822.468000", "110822.468000", "110822.468000", "110822.468000", "110822.468000", "110822.484000", "110902.437000", "110902.437000", "110902.437000", "110902.437000", "110902.453000", "110902.453000", "110902.453000", "110902.453000", "110902.453000", "110902.453000", "110902.453000", "110902.468000", "110902.468000", "110902.468000", "110902.468000", "110902.468000", "110902.468000", "110902.468000", "110902.468000", "110902.484000", "110942.437000", "110942.437000", "110942.437000", "110942.437000", "110942.453000", "110942.453000", "110942.453000", "110942.453000", "110942.453000", "110942.453000", "110942.453000", "110942.468000", "110942.468000", "110942.468000", "110942.468000", "110942.468000", "110942.468000", "110942.468000", "110942.468000", "110942.484000", "111014.812000", "111014.812000", "111014.812000", "111014.812000", "111014.812000", "111014.812000", "111014.828000", "111014.828000", "111014.828000", "111014.828000", "111014.828000", "111014.828000", "111014.828000", "111014.828000", "111014.843000", "111014.843000", "111014.843000"],
      "InstanceNumber": [1, 2, 3, 4, 5, 6, 7, 8, 9, 10, 11, 12, 13, 14, 15, 16, 17, 18, 19, 20, 21, 22, 23, 24, 25, 26, 27, 28, 29, 30, 31, 32, 33, 34, 35, 36, 37, 38, 39, 40, 41, 42, 43, 44, 45, 46, 47, 48, 49, 50, 51, 52, 53, 54, 55, 56, 57, 58, 59, 60, 61, 62, 63, 64, 65, 66, 67, 68, 69, 70, 71, 72, 73, 74, 75, 76, 77, 78, 79, 80, 81, 82, 83, 84, 85, 86, 87, 88, 89, 90, 91, 92, 93, 94, 95, 96, 97, 98, 99, 100, 101, 102, 103, 104, 105, 106, 107, 108, 109, 110, 111, 112, 113, 114, 115, 116, 117, 118, 119, 120, 121, 122, 123, 124, 125, 126, 127, 128, 129, 130, 131, 132, 133, 134, 135, 136, 137, 138, 139, 140, 141, 142, 143, 144, 145, 146, 147, 148, 149, 150, 151, 152, 153, 154, 155, 156, 157, 158, 159, 160, 161, 162, 163, 164, 165, 166, 167, 168, 169, 170, 171, 172, 173, 174, 175, 176, 177, 178, 179, 180, 181, 182, 183, 184, 185, 186, 187, 188, 189, 190, 191, 192, 193, 194, 195, 196, 197, 198, 199, 200, 201, 202, 203, 204, 205, 206, 207, 208, 209, 210, 211, 212, 213, 214, 215, 216, 217, 218, 219, 220, 221, 222, 223, 224, 225, 226, 227, 228, 229, 230, 231, 232, 233, 234, 235, 236, 237, 238, 239, 240, 241, 242, 243, 244, 245, 246, 247, 248, 249, 250, 251, 252, 253, 254, 255, 256, 257, 258],
      "LargestImagePixelValue": [1804, 1659, 1689, 1646, 1706, 1650, 1696, 1634, 1693, 1695, 1729, 1643, 1680, 1700, 1716, 1651, 1677, 1756, 1653, 1684, 1667, 1720, 1632, 1675, 1660, 1748, 1649, 1694, 1677, 1694, 1623, 1638, 1627, 1671, 1723, 1673, 1679, 1690, 1669, 1668, 1710, 1706, 1664, 1677, 1665, 1668, 1657, 1708, 1672, 1665, 1660, 1678, 1681, 1669, 1651, 1657, 1679, 1696, 1732, 1660, 1747, 1675, 1659, 1669, 1656, 1659, 1898, 1656, 1685, 1683, 1713, 1672, 1670, 1682, 1692, 1662, 1684, 1692, 1642, 1709, 1666, 1690, 1662, 1695, 1684, 1653, 1687, 1647, 1737, 1643, 1638, 1682, 1686, 1702, 1718, 1666, 1677, 1678, 1693, 1699, 1689, 1689, 1678, 1714, 1711, 1735, 1729, 1751, 1828, 1975, 1680, 1720, 1710, 1717, 1720, 1764, 1752, 1748, 1692, 1742, 1742, 1677, 1704, 1700, 1640, 1678, 1671, 1711, 1669, 1665, 1654, 1734, 1706, 1662, 1697, 1668, 1682, 1666, 1649, 1642, 1657, 1630, 1657, 1713, 1691, 1669, 1639, 1654, 1777, 1714, 1652, 1635, 1637, 1627, 1651, 1662, 1674, 1661, 1626, 1645, 1631, 1673, 1657, 1703, 1642, 1638, 1668, 1636, 1649, 1632, 1641, 1622, 1655, 1640, 1648, 1664, 1638, 1716, 1752, 1747, 1632, 1622, 1620, 1652, 1659, 1669, 1660, 2006, 1699, 1662, 1699, 1818, 1681, 1625, 1637, 1634, 1643, 1624, 1633, 1673, 1675, 1656, 1647, 1626, 1648, 1785, 1732, 1595, 1630, 1641, 1652, 1640, 1643, 1655, 1671, 1661, 1651, 1642, 1649, 1655, 1712, 1647, 1648, 1692, 1657, 1619, 1666, 1668, 1668, 1632, 1649, 1619, 1702, 1637, 1641, 1633, 1715, 1652, 1635, 1650, 1651, 1644, 1655, 1676, 1689, 1656, 1657, 1630, 1675, 1653, 1675, 1687, 1655, 1627, 1632, 1647, 1625, 1689],
      "WindowCenter": [791.0, 785.0, 784.0, 783.0, 783.0, 783.0, 784.0, 785.0, 786.0, 787.0, 786.0, 788.0, 792.0, 791.0, 790.0, 789.0, 790.0, 788.0, 788.0, 788.0, 788.0, 788.0, 788.0, 788.0, 789.0, 788.0, 793.0, 793.0, 792.0, 789.0, 788.0, 787.0, 787.0, 787.0, 788.0, 788.0, 788.0, 791.0, 790.0, 789.0, 788.0, 789.0, 788.0, 789.0, 788.0, 789.0, 789.0, 790.0, 789.0, 789.0, 789.0, 790.0, 790.0, 790.0, 789.0, 790.0, 794.0, 792.0, 793.0, 791.0, 790.0, 790.0, 788.0, 789.0, 788.0, 788.0, 790.0, 788.0, 789.0, 789.0, 790.0, 789.0, 789.0, 789.0, 789.0, 789.0, 789.0, 789.0, 789.0, 789.0, 790.0, 789.0, 790.0, 789.0, 789.0, 789.0, 793.0, 794.0, 792.0, 790.0, 788.0, 788.0, 787.0, 788.0, 788.0, 787.0, 789.0, 789.0, 789.0, 788.0, 788.0, 788.0, 789.0, 790.0, 789.0, 789.0, 788.0, 794.0, 799.0, 803.0, 801.0, 799.0, 795.0, 795.0, 797.0, 798.0, 796.0, 804.0, 799.0, 800.0, 800.0, 797.0, 794.0, 793.0, 791.0, 792.0, 792.0, 796.0, 797.0, 799.0, 798.0, 800.0, 797.0, 796.0, 797.0, 799.0, 797.0, 795.0, 794.0, 793.0, 794.0, 795.0, 795.0, 796.0, 795.0, 795.0, 794.0, 795.0, 800.0, 799.0, 798.0, 795.0, 794.0, 794.0, 794.0, 794.0, 794.0, 794.0, 793.0, 793.0, 794.0, 794.0, 794.0, 794.0, 794.0, 795.0, 795.0, 795.0, 795.0, 795.0, 794.0, 794.0, 794.0, 794.0, 793.0, 794.0, 793.0, 799.0, 797.0, 801.0, 795.0, 792.0, 793.0, 793.0, 792.0, 792.0, 792.0, 795.0, 793.0, 793.0, 794.0, 799.0, 799.0, 794.0, 794.0, 793.0, 792.0, 792.0, 793.0, 794.0, 793.0, 794.0, 793.0, 793.0, 794.0, 807.0, 799.0, 794.0, 794.0, 793.0, 794.0, 793.0, 793.0, 794.0, 794.0, 795.0, 795.0, 794.0, 795.0, 797.0, 796.0, 795.0, 793.0, 793.0, 792.0, 793.0, 793.0, 794.0, 793.0, 794.0, 793.0, 793.0, 793.0, 794.0, 794.0, 794.0, 795.0, 795.0, 793.0, 793.0, 793.0, 793.0, 793.0, 794.0, 794.0, 794.0, 794.0, 795.0, 795.0, 795.0, 794.0, 794.0, 794.0, 794.0, 793.0, 794.0, 794.0, 795.0],
      "WindowWidth": [1665.0, 1649.0, 1647.0, 1644.0, 1643.0, 1644.0, 1646.0, 1650.0, 1651.0, 1653.0, 1651.0, 1655.0, 1667.0, 1664.0, 1661.0, 1660.0, 1661.0, 1657.0, 1657.0, 1655.0, 1657.0, 1656.0, 1656.0, 1655.0, 1658.0, 1658.0, 1667.0, 1668.0, 1666.0, 1659.0, 1655.0, 1652.0, 1653.0, 1654.0, 1656.0, 1657.0, 1655.0, 1664.0, 1662.0, 1659.0, 1657.0, 1658.0, 1656.0, 1658.0, 1657.0, 1658.0, 1659.0, 1661.0, 1659.0, 1659.0, 1659.0, 1661.0, 1660.0, 1661.0, 1659.0, 1662.0, 1670.0, 1666.0, 1669.0, 1664.0, 1662.0, 1660.0, 1657.0, 1659.0, 1655.0, 1658.0, 1662.0, 1656.0, 1659.0, 1660.0, 1660.0, 1659.0, 1658.0, 1660.0, 1659.0, 1660.0, 1658.0, 1659.0, 1659.0, 1659.0, 1662.0, 1660.0, 1662.0, 1658.0, 1660.0, 1660.0, 1671.0, 1671.0, 1666.0, 1662.0, 1656.0, 1657.0, 1654.0, 1657.0, 1657.0, 1655.0, 1659.0, 1659.0, 1660.0, 1657.0, 1658.0, 1658.0, 1660.0, 1662.0, 1660.0, 1660.0, 1658.0, 1676.0, 1685.0, 1696.0, 1686.0, 1679.0, 1669.0, 1669.0, 1675.0, 1678.0, 1674.0, 1692.0, 1681.0, 1684.0, 1683.0, 1673.0, 1668.0, 1666.0, 1660.0, 1664.0, 1664.0, 1674.0, 1677.0, 1681.0, 1679.0, 1683.0, 1677.0, 1674.0, 1677.0, 1681.0, 1677.0, 1671.0, 1669.0, 1667.0, 1670.0, 1671.0, 1672.0, 1674.0, 1672.0, 1672.0, 1670.0, 1670.0, 1686.0, 1680.0, 1679.0, 1672.0, 1670.0, 1668.0, 1670.0, 1669.0, 1669.0, 1669.0, 1667.0, 1667.0, 1669.0, 1668.0, 1670.0, 1670.0, 1669.0, 1670.0, 1671.0, 1672.0, 1671.0, 1671.0, 1670.0, 1669.0, 1668.0, 1668.0, 1668.0, 1669.0, 1667.0, 1682.0, 1676.0, 1689.0, 1671.0, 1665.0, 1668.0, 1666.0, 1665.0, 1665.0, 1664.0, 1675.0, 1666.0, 1669.0, 1669.0, 1681.0, 1684.0, 1670.0, 1669.0, 1667.0, 1665.0, 1666.0, 1667.0, 1670.0, 1668.0, 1671.0, 1667.0, 1668.0, 1670.0, 1702.0, 1681.0, 1668.0, 1669.0, 1666.0, 1668.0, 1666.0, 1667.0, 1668.0, 1669.0, 1670.0, 1671.0, 1670.0, 1671.0, 1675.0, 1676.0, 1673.0, 1668.0, 1668.0, 1666.0, 1667.0, 1667.0, 1670.0, 1668.0, 1670.0, 1669.0, 1669.0, 1667.0, 1669.0, 1670.0, 1670.0, 1673.0, 1672.0, 1668.0, 1669.0, 1667.0, 1668.0, 1668.0, 1671.0, 1670.0, 1671.0, 1670.0, 1672.0, 1673.0, 1672.0, 1671.0, 1670.0, 1670.0, 1670.0, 1668.0, 1671.0, 1669.0, 1673.0]
    },
    "slices": {}
  }
}