{
  "AcquisitionMatrixPE": 68,
  "AcquisitionNumber": 1,
  "AcquisitionTime": "10:42:30.025000",
  "BandwidthPerPixelPhaseEncode": 31.289,
  "BaseResolution": 68,
  "CoilString": "C:HEA;HEP",
  "ConversionSoftware": "dcm2niix",
  "ConversionSoftwareVersion": "v1.0.20190902",
  "DerivedVendorReportedEchoSpacing": 0.000470002,
  "DeviceSerialNumber": "35450",
  "DwellTime": 3e-06,
  "EchoTime": 0.023,
  "EffectiveEchoSpacing": 0.000470002,
  "FlipAngle": 76,
  "ImageOrientationPatientDICOM": [0.999987, 0.000730374, 0.00513201, 2.94115e-08, 0.990023, -0.140903],
  "ImageType": [
    "ORIGINAL",
    "PRIMARY",
    "M",
    "ND",
    "MOSAIC"
],
  "ImagingFrequency": 123.218,
  "InPlanePhaseEncodingDirectionDICOM": "COL",
  "InstitutionAddress": "Univeristy_Ave._197_Newark_North_East_US_07102-1814",
  "InstitutionName": "RUBIC",
  "InstitutionalDepartmentName": "Department",
  "MRAcquisitionType": "2D",
  "MagneticFieldStrength": 3,
  "Manufacturer": "Siemens",
  "ManufacturersModelName": "TrioTim",
  "Modality": "MR",
  "PartialFourier": 1,
  "PatientPosition": "HFS",
  "PercentPhaseFOV": 100,
  "PhaseEncodingDirection": "j-",
  "PhaseEncodingSteps": 68,
  "PhaseResolution": 1,
  "PixelBandwidth": 2451,
  "ProcedureStepDescription": "Krekelberg_David",
  "ProtocolName": "ep2d_bold_CardGameEPI_1",
  "PulseSequenceDetails": "%SiemensSeq%_ep2d_bold",
  "ReceiveCoilName": "HeadMatrix",
  "ReconMatrixPE": 68,
  "RepetitionTime": 2,
  "SAR": 0.168889,
  "ScanOptions": "FS",
  "ScanningSequence": "EP",
  "SequenceName": "_epfid2d1_68",
  "SequenceVariant": "SK",
  "SeriesDescription": "ep2d_bold_CardGameEPI_1",
  "SeriesNumber": 5,
  "ShimSetting": [1933, -628, -7617, 720, 27, 286, -151, -113],
  "SliceThickness": 2.5,
  "SliceTiming": [1.95, 1.895, 1.84, 1.7825, 1.7275, 1.6725, 1.615, 1.56, 1.505, 1.45, 1.3925, 1.3375, 1.2825, 1.225, 1.17, 1.115, 1.0575, 1.0025, 0.9475, 0.89, 0.835, 0.78, 0.725, 0.6675, 0.6125, 0.5575, 0.5, 0.445, 0.39, 0.3325, 0.2775, 0.2225, 0.165, 0.11, 0.055, 0],
  "SoftwareVersions": "syngo_MR_B19",
  "SpacingBetweenSlices": 3,
  "StationName": "MRC35450",
  "TaskName": "cardgame",
  "TotalReadoutTime": 0.0314901,
  "TxRefAmp": 347.22,
  "dcmmeta_affine": [
    [-2.999959707260132, 8.823447927852612e-08, 0.015551166608929634, 101.74214172363281],
    [-0.002191120758652687, 2.9700701236724854, -0.42270368337631226, -72.23542022705078],
    [0.01539603155106306, 0.4227093756198883, 2.9700303077697754, -52.21115493774414],
    [0.0, 0.0, 0.0, 1.0]
],
  "dcmmeta_reorient_transform": [
    [0.0, -1.0, 0.0, 67.0],
    [1.0, 0.0, 0.0, 0.0],
    [0.0, 0.0, 1.0, 0.0],
    [0.0, 0.0, 0.0, 1.0]
],
  "dcmmeta_shape": [68, 68, 36, 258],
  "dcmmeta_slice_dim": 2,
  "dcmmeta_version": 0.6,
  "global": {
    "const": {
      "AcquisitionMatrix": [68, 0, 0, 68],
      "AngioFlag": "N",
      "BitsAllocated": 16,
      "BitsStored": 12,
      "Columns": 408,
      "EchoNumbers": 1,
      "EchoTime": 23.0,
      "EchoTrainLength": 1,
      "FlipAngle": 76.0,
      "HighBit": 11,
      "ImageOrientationPatient": [0.99998656442071, 0.0007303735784, 0.00513201057084, 2.9411492e-08, 0.99002338804893, -0.1409031267081],
      "ImagePositionPatient": [-611.73531127442, -632.04370232345, 45.353641826024],
      "ImageType": [
        "ORIGINAL",
        "PRIMARY",
        "M",
        "ND",
        "MOSAIC"
],
      "ImagedNucleus": "1H",
      "ImagingFrequency": 123.218416,
      "InPlanePhaseEncodingDirection": "COL",
      "MRAcquisitionType": "2D",
      "MagneticFieldStrength": 3.0,
      "Manufacturer": "SIEMENS",
      "ManufacturerModelName": "TrioTim",
      "Modality": "MR",
      "NumberOfAverages": 1.0,
      "NumberOfPhaseEncodingSteps": 68,
      "PercentPhaseFieldOfView": 100.0,
      "PercentSampling": 100.0,
      "PerformedProcedureStepStartTime": "101123.890000",
      "PhotometricInterpretation": "MONOCHROME2",
      "PixelBandwidth": 2451.0,
      "PixelRepresentation": 0,
      "PixelSpacing": [3.0, 3.0],
      "ProtocolName": "ep2d_bold_CardGameEPI_1",
      "RepetitionTime": 2000.0,
      "Rows": 408,
      "SAR": 0.1688890748079,
      "SamplesPerPixel": 1,
      "ScanOptions": "FS",
      "ScanningSequence": "EP",
      "SequenceName": "*epfid2d1_68",
      "SequenceVariant": "SK",
      "SeriesDescription": "ep2d_bold_CardGameEPI_1",
      "SeriesNumber": 5,
      "SeriesTime": "104315.031000",
      "SliceLocation": -40.984108526347,
      "SliceThickness": 2.5,
      "SmallestImagePixelValue": 0,
      "SoftwareVersions": "syngo MR B19",
      "SpacingBetweenSlices": 2.9999999555374,
      "SpecificCharacterSet": "ISO_IR 100",
      "StudyID": "1",
      "StudyTime": "101123.796000",
      "TransmitCoilName": "Body",
      "VariableFlipAngleFlag": "N",
      "WindowCenterWidthExplanation": "Algo1",
      "dBdt": 0.0},
    "slices": {}
  },
  "time": {
    "samples": {
      "AcquisitionNumber": [1, 2, 3, 4, 5, 6, 7, 8, 9, 10, 11, 12, 13, 14, 15, 16, 17, 18, 19, 20, 21, 22, 23, 24, 25, 26, 27, 28, 29, 30, 31, 32, 33, 34, 35, 36, 37, 38, 39, 40, 41, 42, 43, 44, 45, 46, 47, 48, 49, 50, 51, 52, 53, 54, 55, 56, 57, 58, 59, 60, 61, 62, 63, 64, 65, 66, 67, 68, 69, 70, 71, 72, 73, 74, 75, 76, 77, 78, 79, 80, 81, 82, 83, 84, 85, 86, 87, 88, 89, 90, 91, 92, 93, 94, 95, 96, 97, 98, 99, 100, 101, 102, 103, 104, 105, 106, 107, 108, 109, 110, 111, 112, 113, 114, 115, 116, 117, 118, 119, 120, 121, 122, 123, 124, 125, 126, 127, 128, 129, 130, 131, 132, 133, 134, 135, 136, 137, 138, 139, 140, 141, 142, 143, 144, 145, 146, 147, 148, 149, 150, 151, 152, 153, 154, 155, 156, 157, 158, 159, 160, 161, 162, 163, 164, 165, 166, 167, 168, 169, 170, 171, 172, 173, 174, 175, 176, 177, 178, 179, 180, 181, 182, 183, 184, 185, 186, 187, 188, 189, 190, 191, 192, 193, 194, 195, 196, 197, 198, 199, 200, 201, 202, 203, 204, 205, 206, 207, 208, 209, 210, 211, 212, 213, 214, 215, 216, 217, 218, 219, 220, 221, 222, 223, 224, 225, 226, 227, 228, 229, 230, 231, 232, 233, 234, 235, 236, 237, 238, 239, 240, 241, 242, 243, 244, 245, 246, 247, 248, 249, 250, 251, 252, 253, 254, 255, 256, 257, 258],
      "AcquisitionTime": ["104230.025000", "104232.032500", "104234.042500", "104236.050000", "104238.057500", "104240.065000", "104242.075000", "104244.082500", "104246.090000", "104248.097500", "104250.105000", "104252.115000", "104254.122500", "104256.130000", "104258.137500", "104300.145000", "104302.155000", "104304.162500", "104306.170000", "104308.177500", "104310.187500", "104312.195000", "104314.202500", "104316.210000", "104318.217500", "104320.227500", "104322.235000", "104324.242500", "104326.250000", "104328.257500", "104330.267500", "104332.275000", "104334.282500", "104336.290000", "104338.300000", "104340.307500", "104342.315000", "104344.322500", "104346.330000", "104348.340000", "104350.347500", "104352.355000", "104354.362500", "104356.370000", "104358.380000", "104400.387500", "104402.395000", "104404.402500", "104406.410000", "104408.420000", "104410.427500", "104412.435000", "104414.442500", "104416.452500", "104418.460000", "104420.467500", "104422.475000", "104424.482500", "104426.492500", "104428.500000", "104430.507500", "104432.515000", "104434.522500", "104436.532500", "104438.540000", "104440.547500", "104442.555000", "104444.565000", "104446.572500", "104448.580000", "104450.587500", "104452.595000", "104454.605000", "104456.612500", "104458.620000", "104500.627500", "104502.635000", "104504.645000", "104506.652500", "104508.660000", "104510.667500", "104512.677500", "104514.685000", "104516.692500", "104518.700000", "104520.707500", "104522.717500", "104524.725000", "104526.732500", "104528.740000", "104530.747500", "104532.757500", "104534.765000", "104536.772500", "104538.780000", "104540.787500", "104542.797500", "104544.805000", "104546.812500", "104548.820000", "104550.830000", "104552.837500", "104554.845000", "104556.852500", "104558.860000", "104600.870000", "104602.877500", "104604.885000", "104606.892500", "104608.900000", "104610.910000", "104612.917500", "104614.925000", "104616.932500", "104618.942500", "104620.950000", "104622.957500", "104624.965000", "104626.972500", "104628.982500", "104630.990000", "104632.997500", "104635.005000", "104637.012500", "104639.022500", "104641.030000", "104643.037500", "104645.045000", "104647.055000", "104649.062500", "104651.070000", "104653.077500", "104655.085000", "104657.095000", "104659.102500", "104701.110000", "104703.117500", "104705.125000", "104707.135000", "104709.142500", "104711.150000", "104713.157500", "104715.165000", "104717.175000", "104719.182500", "104721.190000", "104723.197500", "104725.207500", "104727.215000", "104729.222500", "104731.230000", "104733.237500", "104735.247500", "104737.255000", "104739.262500", "104741.270000", "104743.277500", "104745.287500", "104747.295000", "104749.302500", "104751.310000", "104753.320000", "104755.327500", "104757.335000", "104759.342500", "104801.350000", "104803.360000", "104805.367500", "104807.375000", "104809.382500", "104811.390000", "104813.400000", "104815.407500", "104817.415000", "104819.422500", "104821.432500", "104823.440000", "104825.447500", "104827.455000", "104829.462500", "104831.472500", "104833.480000", "104835.487500", "104837.495000", "104839.502500", "104841.512500", "104843.520000", "104845.527500", "104847.535000", "104849.542500", "104851.552500", "104853.560000", "104855.567500", "104857.575000", "104859.585000", "104901.592500", "104903.600000", "104905.607500", "104907.615000", "104909.625000", "104911.632500", "104913.640000", "104915.647500", "104917.655000", "104919.665000", "104921.672500", "104923.680000", "104925.687500", "104927.697500", "104929.705000", "104931.712500", "104933.720000", "104935.727500", "104937.737500", "104939.745000", "104941.752500", "104943.760000", "104945.767500", "104947.777500", "104949.785000", "104951.792500", "104953.800000", "104955.810000", "104957.817500", "104959.825000", "105001.832500", "105003.840000", "105005.850000", "105007.857500", "105009.865000", "105011.872500", "105013.880000", "105015.890000", "105017.897500", "105019.905000", "105021.912500", "105023.920000", "105025.930000", "105027.937500", "105029.945000", "105031.952500", "105033.962500", "105035.970000", "105037.977500", "105039.985000", "105041.992500", "105044.002500", "105046.010000", "105048.017500", "105050.025000", "105052.032500", "105054.042500", "105056.050000", "105058.057500", "105100.065000", "105102.075000", "105104.082500", "105106.090000"],
      "ContentTime": ["104315.046000", "104315.046000", "104315.046000", "104315.046000", "104315.062000", "104315.062000", "104315.062000", "104315.062000", "104315.062000", "104315.062000", "104315.062000", "104315.062000", "104315.078000", "104315.078000", "104315.078000", "104315.078000", "104315.078000", "104315.078000", "104315.078000", "104315.093000", "104315.093000", "104315.093000", "104355.031000", "104355.031000", "104355.031000", "104355.031000", "104355.046000", "104355.046000", "104355.046000", "104355.046000", "104355.046000", "104355.046000", "104355.046000", "104355.062000", "104355.062000", "104355.062000", "104355.062000", "104355.062000", "104355.062000", "104355.062000", "104355.062000", "104355.078000", "104415.031000", "104415.031000", "104415.031000", "104415.031000", "104415.046000", "104415.046000", "104415.046000", "104415.046000", "104415.046000", "104415.046000", "104455.031000", "104455.031000", "104455.031000", "104455.031000", "104455.046000", "104455.046000", "104455.046000", "104455.046000", "104455.046000", "104455.046000", "104455.046000", "104455.046000", "104455.062000", "104455.062000", "104455.062000", "104455.062000", "104455.062000", "104455.062000", "104455.062000", "104455.078000", "104535.031000", "104535.031000", "104535.031000", "104535.031000", "104535.046000", "104535.046000", "104535.046000", "104535.046000", "104535.046000", "104535.046000", "104535.046000", "104535.062000", "104535.062000", "104535.062000", "104535.062000", "104535.062000", "104535.062000", "104535.062000", "104535.078000", "104535.078000", "104615.031000", "104615.031000", "104615.031000", "104615.046000", "104615.046000", "104615.046000", "104615.046000", "104615.046000", "104615.046000", "104615.046000", "104615.046000", "104615.062000", "104615.062000", "104615.062000", "104615.062000", "104615.062000", "104615.062000", "104615.062000", "104615.062000", "104615.078000", "104655.031000", "104655.031000", "104655.031000", "104655.031000", "104655.046000", "104655.046000", "104655.046000", "104655.046000", "104655.046000", "104655.046000", "104655.046000", "104655.046000", "104655.062000", "104655.062000", "104655.062000", "104655.062000", "104655.062000", "104655.062000", "104655.062000", "104655.078000", "104735.031000", "104735.031000", "104735.031000", "104735.031000", "104735.046000", "104735.046000", "104735.046000", "104735.046000", "104735.046000", "104735.046000", "104735.046000", "104735.062000", "104735.062000", "104735.062000", "104735.062000", "104735.062000", "104735.062000", "104735.062000", "104735.062000", "104735.078000", "104815.031000", "104815.031000", "104815.031000", "104815.031000", "104815.046000", "104815.046000", "104815.046000", "104815.046000", "104815.046000", "104815.046000", "104815.046000", "104815.062000", "104815.062000", "104815.062000", "104815.062000", "104815.062000", "104815.062000", "104815.062000", "104815.078000", "104815.078000", "104855.031000", "104855.031000", "104855.031000", "104855.031000", "104855.046000", "104855.046000", "104855.046000", "104855.046000", "104855.046000", "104855.046000", "104855.046000", "104855.062000", "104855.062000", "104855.062000", "104855.062000", "104855.062000", "104855.062000", "104855.062000", "104855.062000", "104855.078000", "104935.031000", "104935.031000", "104935.031000", "104935.046000", "104935.046000", "104935.046000", "104935.046000", "104935.046000", "104935.046000", "104935.046000", "104935.046000", "104935.062000", "104935.062000", "104935.062000", "104935.062000", "104935.062000", "104935.062000", "104935.062000", "104935.062000", "104935.078000", "105015.031000", "105015.031000", "105015.031000", "105015.031000", "105015.046000", "105015.046000", "105015.046000", "105015.046000", "105015.046000", "105015.046000", "105015.046000", "105015.062000", "105015.062000", "105015.062000", "105015.062000", "105015.062000", "105015.062000", "105015.062000", "105015.062000", "105015.078000", "105055.031000", "105055.031000", "105055.031000", "105055.031000", "105055.046000", "105055.046000", "105055.046000", "105055.046000", "105055.046000", "105055.046000", "105055.046000", "105055.046000", "105055.062000", "105055.062000", "105055.062000", "105055.062000", "105055.062000", "105055.062000", "105055.062000", "105055.062000", "105105.734000", "105105.750000", "105105.750000", "105105.750000", "105105.750000", "105105.750000"],
      "InstanceCreationTime": ["104315.046000", "104315.046000", "104315.046000", "104315.046000", "104315.062000", "104315.062000", "104315.062000", "104315.062000", "104315.062000", "104315.062000", "104315.062000", "104315.062000", "104315.078000", "104315.078000", "104315.078000", "104315.078000", "104315.078000", "104315.078000", "104315.078000", "104315.093000", "104315.093000", "104315.093000", "104355.031000", "104355.031000", "104355.031000", "104355.031000", "104355.046000", "104355.046000", "104355.046000", "104355.046000", "104355.046000", "104355.046000", "104355.046000", "104355.062000", "104355.062000", "104355.062000", "104355.062000", "104355.062000", "104355.062000", "104355.062000", "104355.062000", "104355.078000", "104415.031000", "104415.031000", "104415.031000", "104415.031000", "104415.046000", "104415.046000", "104415.046000", "104415.046000", "104415.046000", "104415.046000", "104455.031000", "104455.031000", "104455.031000", "104455.031000", "104455.046000", "104455.046000", "104455.046000", "104455.046000", "104455.046000", "104455.046000", "104455.046000", "104455.046000", "104455.062000", "104455.062000", "104455.062000", "104455.062000", "104455.062000", "104455.062000", "104455.062000", "104455.078000", "104535.031000", "104535.031000", "104535.031000", "104535.031000", "104535.046000", "104535.046000", "104535.046000", "104535.046000", "104535.046000", "104535.046000", "104535.046000", "104535.062000", "104535.062000", "104535.062000", "104535.062000", "104535.062000", "104535.062000", "104535.062000", "104535.078000", "104535.078000", "104615.031000", "104615.031000", "104615.031000", "104615.046000", "104615.046000", "104615.046000", "104615.046000", "104615.046000", "104615.046000", "104615.046000", "104615.046000", "104615.062000", "104615.062000", "104615.062000", "104615.062000", "104615.062000", "104615.062000", "104615.062000", "104615.062000", "104615.078000", "104655.031000", "104655.031000", "104655.031000", "104655.031000", "104655.046000", "104655.046000", "104655.046000", "104655.046000", "104655.046000", "104655.046000", "104655.046000", "104655.046000", "104655.062000", "104655.062000", "104655.062000", "104655.062000", "104655.062000", "104655.062000", "104655.062000", "104655.078000", "104735.031000", "104735.031000", "104735.031000", "104735.031000", "104735.046000", "104735.046000", "104735.046000", "104735.046000", "104735.046000", "104735.046000", "104735.046000", "104735.062000", "104735.062000", "104735.062000", "104735.062000", "104735.062000", "104735.062000", "104735.062000", "104735.062000", "104735.078000", "104815.031000", "104815.031000", "104815.031000", "104815.031000", "104815.046000", "104815.046000", "104815.046000", "104815.046000", "104815.046000", "104815.046000", "104815.046000", "104815.062000", "104815.062000", "104815.062000", "104815.062000", "104815.062000", "104815.062000", "104815.062000", "104815.078000", "104815.078000", "104855.031000", "104855.031000", "104855.031000", "104855.031000", "104855.046000", "104855.046000", "104855.046000", "104855.046000", "104855.046000", "104855.046000", "104855.046000", "104855.062000", "104855.062000", "104855.062000", "104855.062000", "104855.062000", "104855.062000", "104855.062000", "104855.062000", "104855.078000", "104935.031000", "104935.031000", "104935.031000", "104935.046000", "104935.046000", "104935.046000", "104935.046000", "104935.046000", "104935.046000", "104935.046000", "104935.046000", "104935.062000", "104935.062000", "104935.062000", "104935.062000", "104935.062000", "104935.062000", "104935.062000", "104935.062000", "104935.078000", "105015.031000", "105015.031000", "105015.031000", "105015.031000", "105015.046000", "105015.046000", "105015.046000", "105015.046000", "105015.046000", "105015.046000", "105015.046000", "105015.062000", "105015.062000", "105015.062000", "105015.062000", "105015.062000", "105015.062000", "105015.062000", "105015.062000", "105015.078000", "105055.031000", "105055.031000", "105055.031000", "105055.031000", "105055.046000", "105055.046000", "105055.046000", "105055.046000", "105055.046000", "105055.046000", "105055.046000", "105055.046000", "105055.062000", "105055.062000", "105055.062000", "105055.062000", "105055.062000", "105055.062000", "105055.062000", "105055.062000", "105105.734000", "105105.750000", "105105.750000", "105105.750000", "105105.750000", "105105.750000"],
      "InstanceNumber": [1, 2, 3, 4, 5, 6, 7, 8, 9, 10, 11, 12, 13, 14, 15, 16, 17, 18, 19, 20, 21, 22, 23, 24, 25, 26, 27, 28, 29, 30, 31, 32, 33, 34, 35, 36, 37, 38, 39, 40, 41, 42, 43, 44, 45, 46, 47, 48, 49, 50, 51, 52, 53, 54, 55, 56, 57, 58, 59, 60, 61, 62, 63, 64, 65, 66, 67, 68, 69, 70, 71, 72, 73, 74, 75, 76, 77, 78, 79, 80, 81, 82, 83, 84, 85, 86, 87, 88, 89, 90, 91, 92, 93, 94, 95, 96, 97, 98, 99, 100, 101, 102, 103, 104, 105, 106, 107, 108, 109, 110, 111, 112, 113, 114, 115, 116, 117, 118, 119, 120, 121, 122, 123, 124, 125, 126, 127, 128, 129, 130, 131, 132, 133, 134, 135, 136, 137, 138, 139, 140, 141, 142, 143, 144, 145, 146, 147, 148, 149, 150, 151, 152, 153, 154, 155, 156, 157, 158, 159, 160, 161, 162, 163, 164, 165, 166, 167, 168, 169, 170, 171, 172, 173, 174, 175, 176, 177, 178, 179, 180, 181, 182, 183, 184, 185, 186, 187, 188, 189, 190, 191, 192, 193, 194, 195, 196, 197, 198, 199, 200, 201, 202, 203, 204, 205, 206, 207, 208, 209, 210, 211, 212, 213, 214, 215, 216, 217, 218, 219, 220, 221, 222, 223, 224, 225, 226, 227, 228, 229, 230, 231, 232, 233, 234, 235, 236, 237, 238, 239, 240, 241, 242, 243, 244, 245, 246, 247, 248, 249, 250, 251, 252, 253, 254, 255, 256, 257, 258],
      "LargestImagePixelValue": [1792, 1692, 1652, 1636, 1638, 1647, 1616, 1683, 1766, 1692, 1727, 1658, 1632, 1643, 1606, 1643, 1648, 1674, 1641, 1614, 1630, 1672, 1682, 1689, 1670, 1663, 1646, 1704, 1713, 1725, 1667, 1706, 1728, 1648, 1635, 1662, 1679, 1745, 1747, 1680, 1658, 1706, 1658, 1643, 1644, 1629, 1647, 1725, 1717, 1741, 1702, 1693, 1674, 1691, 1677, 1653, 1730, 1646, 1692, 1645, 1660, 1660, 1700, 1646, 1670, 1638, 1710, 1633, 1647, 1676, 1689, 1651, 1706, 1663, 1699, 1721, 1675, 1713, 1661, 1656, 1675, 1635, 1689, 1662, 1664, 1640, 1649, 1653, 1661, 1631, 1641, 1623, 1636, 1647, 1678, 1629, 1651, 1604, 1665, 1630, 1644, 1665, 1637, 1639, 1659, 1628, 1673, 1636, 1690, 1649, 1649, 1664, 1669, 1644, 1669, 1658, 1665, 1631, 1674, 1606, 1627, 1634, 1664, 1622, 1674, 1632, 1667, 1635, 1650, 1631, 1680, 1667, 1667, 1642, 1655, 1636, 1633, 1636, 1649, 1633, 1646, 1644, 1682, 1653, 1646, 1650, 1647, 1657, 1653, 1696, 1646, 1648, 1666, 1656, 1647, 2236, 1763, 1683, 1655, 1665, 1647, 1647, 1655, 1669, 1650, 1675, 1626, 1657, 1656, 1664, 1646, 1645, 1644, 1651, 1629, 1670, 1644, 1688, 1640, 1698, 1668, 1685, 1716, 1685, 1689, 1674, 1677, 1646, 1652, 1682, 1715, 1688, 1658, 1611, 1643, 1649, 1690, 1654, 1660, 1643, 1653, 1638, 1740, 1650, 1645, 1653, 1659, 1637, 1655, 1666, 1673, 1639, 1666, 1648, 1680, 1666, 1658, 1714, 1762, 1772, 1647, 1788, 1638, 1691, 1660, 1651, 1645, 1687, 1657, 1674, 1633, 1684, 1649, 1703, 1650, 1672, 1647, 1702, 1645, 1681, 1654, 1692, 1654, 1771, 1681, 1665, 1672, 1669, 1664, 1878, 1825, 2017, 1658, 1720, 1680, 1650, 1664, 1655],
      "WindowCenter": [796.0, 793.0, 791.0, 791.0, 790.0, 790.0, 788.0, 790.0, 791.0, 790.0, 790.0, 789.0, 790.0, 790.0, 791.0, 791.0, 792.0, 791.0, 790.0, 791.0, 790.0, 791.0, 790.0, 791.0, 791.0, 791.0, 792.0, 796.0, 795.0, 800.0, 794.0, 792.0, 792.0, 790.0, 791.0, 791.0, 792.0, 794.0, 793.0, 792.0, 793.0, 791.0, 791.0, 790.0, 791.0, 789.0, 791.0, 791.0, 791.0, 792.0, 792.0, 792.0, 793.0, 792.0, 792.0, 795.0, 793.0, 792.0, 792.0, 793.0, 792.0, 793.0, 792.0, 793.0, 791.0, 792.0, 792.0, 792.0, 790.0, 790.0, 790.0, 792.0, 791.0, 791.0, 790.0, 791.0, 791.0, 792.0, 792.0, 792.0, 792.0, 793.0, 792.0, 792.0, 792.0, 794.0, 794.0, 795.0, 793.0, 793.0, 792.0, 793.0, 793.0, 794.0, 794.0, 793.0, 793.0, 792.0, 791.0, 792.0, 791.0, 792.0, 791.0, 792.0, 791.0, 792.0, 792.0, 793.0, 793.0, 793.0, 793.0, 794.0, 793.0, 794.0, 794.0, 795.0, 794.0, 794.0, 793.0, 794.0, 792.0, 793.0, 792.0, 793.0, 792.0, 793.0, 792.0, 792.0, 792.0, 793.0, 793.0, 793.0, 792.0, 793.0, 792.0, 793.0, 792.0, 793.0, 793.0, 793.0, 793.0, 794.0, 794.0, 794.0, 793.0, 794.0, 794.0, 795.0, 795.0, 795.0, 794.0, 793.0, 793.0, 793.0, 794.0, 798.0, 796.0, 794.0, 794.0, 793.0, 794.0, 793.0, 793.0, 792.0, 793.0, 793.0, 794.0, 794.0, 794.0, 794.0, 794.0, 793.0, 794.0, 794.0, 794.0, 794.0, 795.0, 794.0, 795.0, 794.0, 795.0, 798.0, 801.0, 801.0, 795.0, 794.0, 794.0, 793.0, 795.0, 796.0, 796.0, 794.0, 793.0, 794.0, 793.0, 795.0, 795.0, 795.0, 794.0, 795.0, 794.0, 795.0, 796.0, 796.0, 796.0, 796.0, 795.0, 795.0, 795.0, 795.0, 794.0, 794.0, 794.0, 795.0, 796.0, 796.0, 796.0, 796.0, 801.0, 800.0, 798.0, 805.0, 799.0, 798.0, 795.0, 794.0, 794.0, 795.0, 794.0, 794.0, 795.0, 796.0, 796.0, 796.0, 797.0, 797.0, 799.0, 799.0, 798.0, 798.0, 797.0, 796.0, 796.0, 796.0, 796.0, 796.0, 797.0, 798.0, 798.0, 800.0, 798.0, 800.0, 797.0, 798.0, 797.0, 797.0, 797.0, 798.0],
      "WindowWidth": [1674.0, 1667.0, 1661.0, 1660.0, 1658.0, 1659.0, 1654.0, 1659.0, 1662.0, 1659.0, 1659.0, 1657.0, 1658.0, 1659.0, 1662.0, 1661.0, 1663.0, 1661.0, 1659.0, 1662.0, 1658.0, 1661.0, 1659.0, 1662.0, 1660.0, 1662.0, 1664.0, 1674.0, 1675.0, 1683.0, 1667.0, 1663.0, 1664.0, 1659.0, 1661.0, 1662.0, 1664.0, 1668.0, 1667.0, 1664.0, 1665.0, 1661.0, 1661.0, 1658.0, 1661.0, 1657.0, 1661.0, 1661.0, 1662.0, 1663.0, 1664.0, 1664.0, 1665.0, 1665.0, 1665.0, 1672.0, 1667.0, 1664.0, 1664.0, 1666.0, 1663.0, 1666.0, 1664.0, 1666.0, 1663.0, 1663.0, 1665.0, 1663.0, 1659.0, 1659.0, 1659.0, 1663.0, 1661.0, 1663.0, 1660.0, 1662.0, 1661.0, 1664.0, 1663.0, 1663.0, 1665.0, 1666.0, 1664.0, 1665.0, 1665.0, 1668.0, 1670.0, 1671.0, 1667.0, 1668.0, 1665.0, 1666.0, 1666.0, 1668.0, 1668.0, 1667.0, 1665.0, 1665.0, 1662.0, 1664.0, 1663.0, 1664.0, 1662.0, 1664.0, 1662.0, 1665.0, 1663.0, 1667.0, 1667.0, 1667.0, 1666.0, 1669.0, 1667.0, 1670.0, 1669.0, 1671.0, 1669.0, 1670.0, 1667.0, 1668.0, 1664.0, 1667.0, 1664.0, 1666.0, 1665.0, 1667.0, 1665.0, 1664.0, 1664.0, 1667.0, 1666.0, 1667.0, 1665.0, 1667.0, 1664.0, 1667.0, 1665.0, 1667.0, 1666.0, 1668.0, 1666.0, 1669.0, 1669.0, 1669.0, 1667.0, 1669.0, 1668.0, 1671.0, 1671.0, 1671.0, 1670.0, 1667.0, 1668.0, 1666.0, 1671.0, 1682.0, 1675.0, 1670.0, 1670.0, 1667.0, 1668.0, 1666.0, 1668.0, 1665.0, 1668.0, 1668.0, 1669.0, 1669.0, 1671.0, 1669.0, 1670.0, 1667.0, 1669.0, 1669.0, 1669.0, 1670.0, 1672.0, 1670.0, 1671.0, 1670.0, 1671.0, 1679.0, 1687.0, 1687.0, 1673.0, 1668.0, 1670.0, 1666.0, 1672.0, 1675.0, 1673.0, 1670.0, 1667.0, 1669.0, 1668.0, 1671.0, 1672.0, 1673.0, 1670.0, 1671.0, 1670.0, 1672.0, 1673.0, 1675.0, 1674.0, 1676.0, 1672.0, 1673.0, 1671.0, 1672.0, 1670.0, 1671.0, 1669.0, 1672.0, 1673.0, 1675.0, 1675.0, 1674.0, 1688.0, 1683.0, 1681.0, 1697.0, 1680.0, 1677.0, 1671.0, 1668.0, 1667.0, 1671.0, 1669.0, 1668.0, 1672.0, 1673.0, 1674.0, 1674.0, 1676.0, 1675.0, 1681.0, 1682.0, 1679.0, 1678.0, 1676.0, 1674.0, 1673.0, 1675.0, 1675.0, 1675.0, 1677.0, 1678.0, 1679.0, 1683.0, 1679.0, 1685.0, 1677.0, 1679.0, 1677.0, 1677.0, 1676.0, 1679.0]
    },
    "slices": {}
  }
}