{
  "AcquisitionMatrixPE": 68,
  "AcquisitionNumber": 1,
  "AcquisitionTime": "11:38:33.065000",
  "BandwidthPerPixelPhaseEncode": 31.289,
  "BaseResolution": 68,
  "CoilString": "C:HEA;HEP",
  "ConversionSoftware": "dcm2niix",
  "ConversionSoftwareVersion": "v1.0.20190902",
  "DerivedVendorReportedEchoSpacing": 0.000470002,
  "DeviceSerialNumber": "35450",
  "DwellTime": 3e-06,
  "EchoTime": 0.023,
  "EffectiveEchoSpacing": 0.000470002,
  "FlipAngle": 76,
  "ImageOrientationPatientDICOM": [0.999987, 0.000730374, 0.00513201, 2.94115e-08, 0.990023, -0.140903],
  "ImageType": [
    "ORIGINAL",
    "PRIMARY",
    "M",
    "ND",
    "MOSAIC"
],
  "ImagingFrequency": 123.219,
  "InPlanePhaseEncodingDirectionDICOM": "COL",
  "InstitutionAddress": "Univeristy_Ave._197_Newark_North_East_US_07102-1814",
  "InstitutionName": "RUBIC",
  "InstitutionalDepartmentName": "Department",
  "MRAcquisitionType": "2D",
  "MagneticFieldStrength": 3,
  "Manufacturer": "Siemens",
  "ManufacturersModelName": "TrioTim",
  "Modality": "MR",
  "PartialFourier": 1,
  "PatientPosition": "HFS",
  "PercentPhaseFOV": 100,
  "PhaseEncodingDirection": "j-",
  "PhaseEncodingSteps": 68,
  "PhaseResolution": 1,
  "PixelBandwidth": 2451,
  "ProcedureStepDescription": "Krekelberg_David",
  "ProtocolName": "ep2d_bold_CardGameEPI_3",
  "PulseSequenceDetails": "%SiemensSeq%_ep2d_bold",
  "ReceiveCoilName": "HeadMatrix",
  "ReconMatrixPE": 68,
  "RepetitionTime": 2,
  "SAR": 0.168889,
  "ScanOptions": "FS",
  "ScanningSequence": "EP",
  "SequenceName": "_epfid2d1_68",
  "SequenceVariant": "SK",
  "SeriesDescription": "ep2d_bold_CardGameEPI_3",
  "SeriesNumber": 11,
  "ShimSetting": [1933, -628, -7617, 720, 27, 286, -151, -113],
  "SliceThickness": 2.5,
  "SliceTiming": [1.95, 1.895, 1.84, 1.7825, 1.7275, 1.6725, 1.6175, 1.56, 1.505, 1.45, 1.3925, 1.3375, 1.2825, 1.225, 1.17, 1.115, 1.0575, 1.0025, 0.9475, 0.8925, 0.835, 0.78, 0.725, 0.6675, 0.6125, 0.5575, 0.5, 0.445, 0.39, 0.3325, 0.2775, 0.2225, 0.1675, 0.11, 0.055, 0],
  "SoftwareVersions": "syngo_MR_B19",
  "SpacingBetweenSlices": 3,
  "StationName": "MRC35450",
  "TaskName": "cardgame",
  "TotalReadoutTime": 0.0314901,
  "TxRefAmp": 347.22,
  "dcmmeta_affine": [
    [-2.999959707260132, 8.823447927852612e-08, 0.015551166608929634, 101.74214172363281],
    [-0.002191120758652687, 2.9700701236724854, -0.42270368337631226, -72.23542022705078],
    [0.01539603155106306, 0.4227093756198883, 2.9700303077697754, -52.21115493774414],
    [0.0, 0.0, 0.0, 1.0]
],
  "dcmmeta_reorient_transform": [
    [0.0, -1.0, 0.0, 67.0],
    [1.0, 0.0, 0.0, 0.0],
    [0.0, 0.0, 1.0, 0.0],
    [0.0, 0.0, 0.0, 1.0]
],
  "dcmmeta_shape": [68, 68, 36, 258],
  "dcmmeta_slice_dim": 2,
  "dcmmeta_version": 0.6,
  "global": {
    "const": {
      "AcquisitionMatrix": [68, 0, 0, 68],
      "AngioFlag": "N",
      "BitsAllocated": 16,
      "BitsStored": 12,
      "Columns": 408,
      "EchoNumbers": 1,
      "EchoTime": 23.0,
      "EchoTrainLength": 1,
      "FlipAngle": 76.0,
      "HighBit": 11,
      "ImageOrientationPatient": [0.99998656442071, 0.0007303735784, 0.00513201057084, 2.9411492e-08, 0.99002338804893, -0.1409031267081],
      "ImagePositionPatient": [-611.73531127442, -632.04370232345, 45.353641826024],
      "ImageType": [
        "ORIGINAL",
        "PRIMARY",
        "M",
        "ND",
        "MOSAIC"
],
      "ImagedNucleus": "1H",
      "ImagingFrequency": 123.218537,
      "InPlanePhaseEncodingDirection": "COL",
      "MRAcquisitionType": "2D",
      "MagneticFieldStrength": 3.0,
      "Manufacturer": "SIEMENS",
      "ManufacturerModelName": "TrioTim",
      "Modality": "MR",
      "NumberOfAverages": 1.0,
      "NumberOfPhaseEncodingSteps": 68,
      "PercentPhaseFieldOfView": 100.0,
      "PercentSampling": 100.0,
      "PerformedProcedureStepStartTime": "101123.890000",
      "PhotometricInterpretation": "MONOCHROME2",
      "PixelBandwidth": 2451.0,
      "PixelRepresentation": 0,
      "PixelSpacing": [3.0, 3.0],
      "ProtocolName": "ep2d_bold_CardGameEPI_3",
      "RepetitionTime": 2000.0,
      "Rows": 408,
      "SAR": 0.1688890748079,
      "SamplesPerPixel": 1,
      "ScanOptions": "FS",
      "ScanningSequence": "EP",
      "SequenceName": "*epfid2d1_68",
      "SequenceVariant": "SK",
      "SeriesDescription": "ep2d_bold_CardGameEPI_3",
      "SeriesNumber": 11,
      "SeriesTime": "113915.031000",
      "SliceLocation": -40.984108526347,
      "SliceThickness": 2.5,
      "SmallestImagePixelValue": 0,
      "SoftwareVersions": "syngo MR B19",
      "SpacingBetweenSlices": 2.9999999555374,
      "SpecificCharacterSet": "ISO_IR 100",
      "StudyID": "1",
      "StudyTime": "101123.796000",
      "TransmitCoilName": "Body",
      "VariableFlipAngleFlag": "N",
      "WindowCenterWidthExplanation": "Algo1",
      "dBdt": 0.0},
    "slices": {}
  },
  "time": {
    "samples": {
      "AcquisitionNumber": [1, 2, 3, 4, 5, 6, 7, 8, 9, 10, 11, 12, 13, 14, 15, 16, 17, 18, 19, 20, 21, 22, 23, 24, 25, 26, 27, 28, 29, 30, 31, 32, 33, 34, 35, 36, 37, 38, 39, 40, 41, 42, 43, 44, 45, 46, 47, 48, 49, 50, 51, 52, 53, 54, 55, 56, 57, 58, 59, 60, 61, 62, 63, 64, 65, 66, 67, 68, 69, 70, 71, 72, 73, 74, 75, 76, 77, 78, 79, 80, 81, 82, 83, 84, 85, 86, 87, 88, 89, 90, 91, 92, 93, 94, 95, 96, 97, 98, 99, 100, 101, 102, 103, 104, 105, 106, 107, 108, 109, 110, 111, 112, 113, 114, 115, 116, 117, 118, 119, 120, 121, 122, 123, 124, 125, 126, 127, 128, 129, 130, 131, 132, 133, 134, 135, 136, 137, 138, 139, 140, 141, 142, 143, 144, 145, 146, 147, 148, 149, 150, 151, 152, 153, 154, 155, 156, 157, 158, 159, 160, 161, 162, 163, 164, 165, 166, 167, 168, 169, 170, 171, 172, 173, 174, 175, 176, 177, 178, 179, 180, 181, 182, 183, 184, 185, 186, 187, 188, 189, 190, 191, 192, 193, 194, 195, 196, 197, 198, 199, 200, 201, 202, 203, 204, 205, 206, 207, 208, 209, 210, 211, 212, 213, 214, 215, 216, 217, 218, 219, 220, 221, 222, 223, 224, 225, 226, 227, 228, 229, 230, 231, 232, 233, 234, 235, 236, 237, 238, 239, 240, 241, 242, 243, 244, 245, 246, 247, 248, 249, 250, 251, 252, 253, 254, 255, 256, 257, 258],
      "AcquisitionTime": ["113833.065000", "113835.075000", "113837.082500", "113839.090000", "113841.097500", "113843.105000", "113845.115000", "113847.122500", "113849.130000", "113851.137500", "113853.145000", "113855.155000", "113857.162500", "113859.170000", "113901.177500", "113903.187500", "113905.195000", "113907.202500", "113909.210000", "113911.217500", "113913.227500", "113915.235000", "113917.242500", "113919.250000", "113921.257500", "113923.267500", "113925.275000", "113927.282500", "113929.290000", "113931.300000", "113933.307500", "113935.315000", "113937.322500", "113939.330000", "113941.340000", "113943.347500", "113945.355000", "113947.362500", "113949.370000", "113951.380000", "113953.387500", "113955.395000", "113957.402500", "113959.410000", "114001.420000", "114003.427500", "114005.435000", "114007.442500", "114009.452500", "114011.460000", "114013.467500", "114015.475000", "114017.482500", "114019.492500", "114021.500000", "114023.507500", "114025.515000", "114027.522500", "114029.532500", "114031.540000", "114033.547500", "114035.555000", "114037.565000", "114039.572500", "114041.580000", "114043.587500", "114045.595000", "114047.605000", "114049.612500", "114051.620000", "114053.627500", "114055.635000", "114057.645000", "114059.652500", "114101.660000", "114103.667500", "114105.677500", "114107.685000", "114109.692500", "114111.700000", "114113.707500", "114115.717500", "114117.725000", "114119.732500", "114121.740000", "114123.747500", "114125.757500", "114127.765000", "114129.772500", "114131.780000", "114133.787500", "114135.797500", "114137.805000", "114139.812500", "114141.820000", "114143.830000", "114145.837500", "114147.845000", "114149.852500", "114151.860000", "114153.870000", "114155.877500", "114157.885000", "114159.892500", "114201.900000", "114203.910000", "114205.917500", "114207.925000", "114209.932500", "114211.942500", "114213.950000", "114215.957500", "114217.965000", "114219.972500", "114221.982500", "114223.990000", "114225.997500", "114228.005000", "114230.012500", "114232.022500", "114234.030000", "114236.037500", "114238.045000", "114240.055000", "114242.062500", "114244.070000", "114246.077500", "114248.085000", "114250.095000", "114252.102500", "114254.110000", "114256.117500", "114258.125000", "114300.135000", "114302.142500", "114304.150000", "114306.157500", "114308.167500", "114310.175000", "114312.182500", "114314.190000", "114316.197500", "114318.207500", "114320.215000", "114322.222500", "114324.230000", "114326.237500", "114328.247500", "114330.255000", "114332.262500", "114334.270000", "114336.277500", "114338.287500", "114340.295000", "114342.302500", "114344.310000", "114346.320000", "114348.327500", "114350.335000", "114352.342500", "114354.350000", "114356.360000", "114358.367500", "114400.375000", "114402.382500", "114404.390000", "114406.400000", "114408.407500", "114410.415000", "114412.422500", "114414.432500", "114416.440000", "114418.447500", "114420.455000", "114422.462500", "114424.472500", "114426.480000", "114428.487500", "114430.495000", "114432.502500", "114434.512500", "114436.520000", "114438.527500", "114440.535000", "114442.545000", "114444.552500", "114446.560000", "114448.567500", "114450.575000", "114452.585000", "114454.592500", "114456.600000", "114458.607500", "114500.615000", "114502.625000", "114504.632500", "114506.640000", "114508.647500", "114510.655000", "114512.665000", "114514.672500", "114516.680000", "114518.687500", "114520.697500", "114522.705000", "114524.712500", "114526.720000", "114528.727500", "114530.737500", "114532.745000", "114534.752500", "114536.760000", "114538.767500", "114540.777500", "114542.785000", "114544.792500", "114546.800000", "114548.810000", "114550.817500", "114552.825000", "114554.832500", "114556.840000", "114558.850000", "114600.857500", "114602.865000", "114604.872500", "114606.880000", "114608.890000", "114610.897500", "114612.905000", "114614.912500", "114616.922500", "114618.930000", "114620.937500", "114622.945000", "114624.952500", "114626.962500", "114628.970000", "114630.977500", "114632.985000", "114634.992500", "114637.002500", "114639.010000", "114641.017500", "114643.025000", "114645.032500", "114647.042500", "114649.050000", "114651.057500", "114653.065000", "114655.075000", "114657.082500", "114659.090000", "114701.097500", "114703.105000", "114705.115000", "114707.122500", "114709.130000"],
      "ContentTime": ["113915.031000", "113915.046000", "113915.046000", "113915.046000", "113915.046000", "113915.046000", "113915.046000", "113915.046000", "113915.062000", "113915.062000", "113915.062000", "113915.062000", "113915.062000", "113915.062000", "113915.062000", "113915.062000", "113915.078000", "113915.078000", "113915.078000", "113915.078000", "113915.078000", "113955.031000", "113955.031000", "113955.031000", "113955.031000", "113955.046000", "113955.046000", "113955.046000", "113955.046000", "113955.046000", "113955.046000", "113955.046000", "113955.062000", "113955.062000", "113955.062000", "113955.062000", "113955.062000", "113955.062000", "113955.062000", "113955.062000", "113955.078000", "114035.031000", "114035.031000", "114035.031000", "114035.046000", "114035.046000", "114035.046000", "114035.046000", "114035.046000", "114035.046000", "114035.046000", "114035.046000", "114035.062000", "114035.062000", "114035.062000", "114035.062000", "114035.062000", "114035.062000", "114035.062000", "114035.078000", "114035.078000", "114115.031000", "114115.031000", "114115.031000", "114115.046000", "114115.046000", "114115.046000", "114115.046000", "114115.046000", "114115.046000", "114115.046000", "114115.046000", "114115.062000", "114115.062000", "114115.062000", "114115.062000", "114115.062000", "114115.062000", "114115.062000", "114115.062000", "114115.078000", "114155.031000", "114155.031000", "114155.031000", "114155.031000", "114155.046000", "114155.046000", "114155.046000", "114155.046000", "114155.046000", "114155.046000", "114155.046000", "114155.062000", "114155.062000", "114155.062000", "114155.062000", "114155.062000", "114155.062000", "114155.062000", "114155.078000", "114155.078000", "114235.031000", "114235.031000", "114235.031000", "114235.046000", "114235.046000", "114235.046000", "114235.046000", "114235.046000", "114235.046000", "114235.046000", "114235.046000", "114235.062000", "114235.062000", "114235.062000", "114235.062000", "114235.062000", "114235.062000", "114235.062000", "114235.062000", "114235.078000", "114315.031000", "114315.031000", "114315.031000", "114315.046000", "114315.046000", "114315.046000", "114315.046000", "114315.046000", "114315.046000", "114315.046000", "114315.046000", "114315.062000", "114315.062000", "114315.062000", "114315.062000", "114315.062000", "114315.062000", "114315.062000", "114315.078000", "114315.078000", "114355.031000", "114355.031000", "114355.031000", "114355.031000", "114355.046000", "114355.046000", "114355.046000", "114355.046000", "114355.046000", "114355.046000", "114355.046000", "114355.062000", "114355.062000", "114355.062000", "114355.062000", "114355.062000", "114355.062000", "114355.062000", "114355.078000", "114355.078000", "114415.031000", "114415.031000", "114415.031000", "114415.046000", "114415.046000", "114415.046000", "114415.046000", "114415.046000", "114415.046000", "114415.046000", "114455.031000", "114455.031000", "114455.031000", "114455.031000", "114455.046000", "114455.046000", "114455.046000", "114455.046000", "114455.046000", "114455.046000", "114455.046000", "114455.062000", "114455.062000", "114455.062000", "114455.062000", "114455.062000", "114455.062000", "114455.062000", "114455.078000", "114455.078000", "114535.031000", "114535.031000", "114535.031000", "114535.031000", "114535.046000", "114535.046000", "114535.046000", "114535.046000", "114535.046000", "114535.046000", "114535.046000", "114535.062000", "114535.062000", "114535.062000", "114535.062000", "114535.062000", "114535.062000", "114535.062000", "114535.062000", "114535.078000", "114615.031000", "114615.031000", "114615.031000", "114615.031000", "114615.046000", "114615.046000", "114615.046000", "114615.046000", "114615.046000", "114615.046000", "114615.046000", "114615.062000", "114615.062000", "114615.062000", "114615.062000", "114615.062000", "114615.062000", "114615.062000", "114615.062000", "114615.078000", "114655.031000", "114655.031000", "114655.031000", "114655.031000", "114655.046000", "114655.046000", "114655.046000", "114655.046000", "114655.046000", "114655.046000", "114655.046000", "114655.062000", "114655.062000", "114655.062000", "114655.062000", "114655.062000", "114655.062000", "114655.062000", "114655.062000", "114655.078000", "114708.718000", "114708.734000", "114708.734000", "114708.734000", "114708.734000", "114708.734000", "114708.734000"],
      "InstanceCreationTime": ["113915.031000", "113915.046000", "113915.046000", "113915.046000", "113915.046000", "113915.046000", "113915.046000", "113915.046000", "113915.062000", "113915.062000", "113915.062000", "113915.062000", "113915.062000", "113915.062000", "113915.062000", "113915.062000", "113915.078000", "113915.078000", "113915.078000", "113915.078000", "113915.078000", "113955.031000", "113955.031000", "113955.031000", "113955.031000", "113955.046000", "113955.046000", "113955.046000", "113955.046000", "113955.046000", "113955.046000", "113955.046000", "113955.062000", "113955.062000", "113955.062000", "113955.062000", "113955.062000", "113955.062000", "113955.062000", "113955.062000", "113955.078000", "114035.031000", "114035.031000", "114035.031000", "114035.046000", "114035.046000", "114035.046000", "114035.046000", "114035.046000", "114035.046000", "114035.046000", "114035.046000", "114035.062000", "114035.062000", "114035.062000", "114035.062000", "114035.062000", "114035.062000", "114035.062000", "114035.078000", "114035.078000", "114115.031000", "114115.031000", "114115.031000", "114115.046000", "114115.046000", "114115.046000", "114115.046000", "114115.046000", "114115.046000", "114115.046000", "114115.046000", "114115.062000", "114115.062000", "114115.062000", "114115.062000", "114115.062000", "114115.062000", "114115.062000", "114115.062000", "114115.078000", "114155.031000", "114155.031000", "114155.031000", "114155.031000", "114155.046000", "114155.046000", "114155.046000", "114155.046000", "114155.046000", "114155.046000", "114155.046000", "114155.062000", "114155.062000", "114155.062000", "114155.062000", "114155.062000", "114155.062000", "114155.062000", "114155.078000", "114155.078000", "114235.031000", "114235.031000", "114235.031000", "114235.046000", "114235.046000", "114235.046000", "114235.046000", "114235.046000", "114235.046000", "114235.046000", "114235.046000", "114235.062000", "114235.062000", "114235.062000", "114235.062000", "114235.062000", "114235.062000", "114235.062000", "114235.062000", "114235.078000", "114315.031000", "114315.031000", "114315.031000", "114315.046000", "114315.046000", "114315.046000", "114315.046000", "114315.046000", "114315.046000", "114315.046000", "114315.046000", "114315.062000", "114315.062000", "114315.062000", "114315.062000", "114315.062000", "114315.062000", "114315.062000", "114315.078000", "114315.078000", "114355.031000", "114355.031000", "114355.031000", "114355.031000", "114355.046000", "114355.046000", "114355.046000", "114355.046000", "114355.046000", "114355.046000", "114355.046000", "114355.062000", "114355.062000", "114355.062000", "114355.062000", "114355.062000", "114355.062000", "114355.062000", "114355.078000", "114355.078000", "114415.031000", "114415.031000", "114415.031000", "114415.046000", "114415.046000", "114415.046000", "114415.046000", "114415.046000", "114415.046000", "114415.046000", "114455.031000", "114455.031000", "114455.031000", "114455.031000", "114455.046000", "114455.046000", "114455.046000", "114455.046000", "114455.046000", "114455.046000", "114455.046000", "114455.062000", "114455.062000", "114455.062000", "114455.062000", "114455.062000", "114455.062000", "114455.062000", "114455.078000", "114455.078000", "114535.031000", "114535.031000", "114535.031000", "114535.031000", "114535.046000", "114535.046000", "114535.046000", "114535.046000", "114535.046000", "114535.046000", "114535.046000", "114535.062000", "114535.062000", "114535.062000", "114535.062000", "114535.062000", "114535.062000", "114535.062000", "114535.062000", "114535.078000", "114615.031000", "114615.031000", "114615.031000", "114615.031000", "114615.046000", "114615.046000", "114615.046000", "114615.046000", "114615.046000", "114615.046000", "114615.046000", "114615.062000", "114615.062000", "114615.062000", "114615.062000", "114615.062000", "114615.062000", "114615.062000", "114615.062000", "114615.078000", "114655.031000", "114655.031000", "114655.031000", "114655.031000", "114655.046000", "114655.046000", "114655.046000", "114655.046000", "114655.046000", "114655.046000", "114655.046000", "114655.062000", "114655.062000", "114655.062000", "114655.062000", "114655.062000", "114655.062000", "114655.062000", "114655.062000", "114655.078000", "114708.718000", "114708.734000", "114708.734000", "114708.734000", "114708.734000", "114708.734000", "114708.734000"],
      "InstanceNumber": [1, 2, 3, 4, 5, 6, 7, 8, 9, 10, 11, 12, 13, 14, 15, 16, 17, 18, 19, 20, 21, 22, 23, 24, 25, 26, 27, 28, 29, 30, 31, 32, 33, 34, 35, 36, 37, 38, 39, 40, 41, 42, 43, 44, 45, 46, 47, 48, 49, 50, 51, 52, 53, 54, 55, 56, 57, 58, 59, 60, 61, 62, 63, 64, 65, 66, 67, 68, 69, 70, 71, 72, 73, 74, 75, 76, 77, 78, 79, 80, 81, 82, 83, 84, 85, 86, 87, 88, 89, 90, 91, 92, 93, 94, 95, 96, 97, 98, 99, 100, 101, 102, 103, 104, 105, 106, 107, 108, 109, 110, 111, 112, 113, 114, 115, 116, 117, 118, 119, 120, 121, 122, 123, 124, 125, 126, 127, 128, 129, 130, 131, 132, 133, 134, 135, 136, 137, 138, 139, 140, 141, 142, 143, 144, 145, 146, 147, 148, 149, 150, 151, 152, 153, 154, 155, 156, 157, 158, 159, 160, 161, 162, 163, 164, 165, 166, 167, 168, 169, 170, 171, 172, 173, 174, 175, 176, 177, 178, 179, 180, 181, 182, 183, 184, 185, 186, 187, 188, 189, 190, 191, 192, 193, 194, 195, 196, 197, 198, 199, 200, 201, 202, 203, 204, 205, 206, 207, 208, 209, 210, 211, 212, 213, 214, 215, 216, 217, 218, 219, 220, 221, 222, 223, 224, 225, 226, 227, 228, 229, 230, 231, 232, 233, 234, 235, 236, 237, 238, 239, 240, 241, 242, 243, 244, 245, 246, 247, 248, 249, 250, 251, 252, 253, 254, 255, 256, 257, 258],
      "LargestImagePixelValue": [1805, 1695, 1702, 1684, 1679, 1663, 1666, 1680, 1651, 1676, 1656, 1660, 1639, 1656, 1701, 1709, 1670, 1690, 1661, 1662, 1688, 1631, 1691, 1680, 1729, 1668, 1676, 1729, 1687, 1679, 1642, 1682, 1875, 1649, 1653, 1652, 1705, 1735, 1682, 1673, 1649, 1667, 1666, 1703, 1646, 1688, 1664, 1667, 1655, 1689, 1661, 1634, 1710, 1670, 1667, 1666, 1669, 1659, 1891, 1676, 1652, 1683, 1651, 1679, 1691, 1656, 1647, 1653, 1702, 1667, 1652, 1674, 1676, 1645, 1648, 1653, 1685, 1667, 1676, 1635, 1701, 1696, 1674, 1656, 1650, 1654, 1658, 1690, 1664, 1715, 1671, 1673, 1674, 1656, 1665, 1648, 1670, 1719, 1644, 1698, 1671, 1660, 1637, 1697, 1658, 1666, 1642, 1667, 1669, 1656, 1640, 1688, 1680, 1666, 1654, 1647, 1645, 1679, 1689, 1671, 1693, 1665, 1701, 1661, 1694, 1649, 1644, 1657, 1633, 1656, 1721, 1639, 1687, 1746, 1663, 1678, 1666, 1671, 1685, 1695, 1668, 1647, 1666, 1660, 1713, 1656, 1663, 1649, 1659, 1908, 1661, 1685, 1686, 1690, 1637, 1685, 1687, 1655, 1643, 1657, 1720, 1650, 1697, 1668, 1652, 1772, 1700, 1642, 1668, 1721, 1707, 1651, 1705, 1655, 1660, 1651, 1687, 1672, 1677, 1665, 1652, 1694, 1688, 1680, 1707, 1665, 1622, 1663, 1674, 1690, 1690, 1618, 1676, 1685, 1689, 1652, 1680, 1689, 1760, 2093, 1685, 1684, 1724, 1680, 1699, 1723, 1882, 1682, 1670, 1678, 1661, 1698, 1709, 1723, 1649, 1701, 1688, 1666, 1679, 1724, 1703, 1694, 1658, 1667, 1740, 1679, 1703, 1789, 1667, 1705, 1643, 1661, 1771, 1775, 1749, 1727, 1733, 1690, 1730, 1703, 1681, 1760, 1700, 1818, 1733, 1679, 1694, 1722, 1673, 1686, 1712, 1705, 1696, 1690, 1706, 1697, 1684, 1723],
      "WindowCenter": [788.0, 786.0, 784.0, 784.0, 785.0, 784.0, 784.0, 783.0, 784.0, 782.0, 783.0, 782.0, 783.0, 783.0, 783.0, 784.0, 783.0, 784.0, 783.0, 783.0, 783.0, 782.0, 783.0, 783.0, 786.0, 784.0, 785.0, 784.0, 784.0, 782.0, 783.0, 782.0, 784.0, 781.0, 782.0, 782.0, 783.0, 783.0, 784.0, 783.0, 783.0, 782.0, 784.0, 784.0, 784.0, 784.0, 783.0, 783.0, 783.0, 784.0, 783.0, 784.0, 783.0, 784.0, 784.0, 786.0, 785.0, 785.0, 786.0, 783.0, 784.0, 785.0, 784.0, 784.0, 784.0, 784.0, 783.0, 783.0, 784.0, 783.0, 783.0, 784.0, 784.0, 784.0, 785.0, 784.0, 784.0, 785.0, 785.0, 786.0, 786.0, 785.0, 785.0, 785.0, 785.0, 786.0, 786.0, 787.0, 786.0, 786.0, 785.0, 785.0, 785.0, 785.0, 785.0, 785.0, 786.0, 786.0, 786.0, 785.0, 786.0, 784.0, 784.0, 784.0, 785.0, 784.0, 784.0, 785.0, 785.0, 785.0, 784.0, 786.0, 785.0, 786.0, 785.0, 786.0, 786.0, 786.0, 787.0, 786.0, 788.0, 789.0, 788.0, 787.0, 787.0, 785.0, 785.0, 784.0, 785.0, 785.0, 786.0, 786.0, 786.0, 787.0, 787.0, 788.0, 788.0, 788.0, 786.0, 787.0, 786.0, 787.0, 787.0, 786.0, 787.0, 786.0, 787.0, 786.0, 788.0, 790.0, 789.0, 789.0, 788.0, 787.0, 786.0, 786.0, 786.0, 787.0, 786.0, 786.0, 786.0, 786.0, 786.0, 786.0, 786.0, 787.0, 787.0, 786.0, 788.0, 787.0, 787.0, 787.0, 788.0, 788.0, 790.0, 788.0, 788.0, 787.0, 788.0, 790.0, 789.0, 790.0, 789.0, 788.0, 788.0, 786.0, 787.0, 788.0, 789.0, 788.0, 787.0, 786.0, 788.0, 788.0, 788.0, 786.0, 787.0, 787.0, 792.0, 792.0, 788.0, 787.0, 787.0, 787.0, 786.0, 787.0, 789.0, 787.0, 788.0, 787.0, 787.0, 787.0, 786.0, 787.0, 787.0, 789.0, 787.0, 787.0, 788.0, 788.0, 789.0, 788.0, 789.0, 789.0, 789.0, 790.0, 790.0, 789.0, 788.0, 788.0, 787.0, 787.0, 788.0, 786.0, 791.0, 792.0, 790.0, 788.0, 787.0, 787.0, 787.0, 790.0, 787.0, 788.0, 787.0, 787.0, 788.0, 790.0, 793.0, 789.0, 788.0, 788.0, 788.0, 789.0, 788.0, 787.0, 787.0, 788.0],
      "WindowWidth": [1659.0, 1651.0, 1648.0, 1647.0, 1649.0, 1646.0, 1646.0, 1644.0, 1647.0, 1642.0, 1645.0, 1643.0, 1644.0, 1646.0, 1643.0, 1646.0, 1645.0, 1648.0, 1644.0, 1646.0, 1644.0, 1642.0, 1644.0, 1644.0, 1652.0, 1647.0, 1651.0, 1648.0, 1648.0, 1643.0, 1645.0, 1642.0, 1649.0, 1641.0, 1644.0, 1642.0, 1646.0, 1646.0, 1648.0, 1645.0, 1645.0, 1644.0, 1648.0, 1647.0, 1649.0, 1647.0, 1645.0, 1645.0, 1644.0, 1646.0, 1645.0, 1648.0, 1645.0, 1647.0, 1646.0, 1651.0, 1649.0, 1650.0, 1654.0, 1645.0, 1647.0, 1650.0, 1647.0, 1648.0, 1647.0, 1647.0, 1644.0, 1644.0, 1648.0, 1644.0, 1645.0, 1646.0, 1648.0, 1647.0, 1649.0, 1648.0, 1647.0, 1649.0, 1650.0, 1652.0, 1653.0, 1650.0, 1651.0, 1649.0, 1649.0, 1652.0, 1652.0, 1654.0, 1652.0, 1654.0, 1648.0, 1650.0, 1649.0, 1650.0, 1649.0, 1650.0, 1652.0, 1651.0, 1651.0, 1650.0, 1651.0, 1647.0, 1647.0, 1648.0, 1648.0, 1648.0, 1647.0, 1650.0, 1648.0, 1649.0, 1647.0, 1652.0, 1649.0, 1651.0, 1648.0, 1652.0, 1652.0, 1650.0, 1654.0, 1651.0, 1656.0, 1660.0, 1659.0, 1654.0, 1654.0, 1650.0, 1650.0, 1648.0, 1650.0, 1650.0, 1653.0, 1652.0, 1653.0, 1654.0, 1654.0, 1657.0, 1656.0, 1657.0, 1652.0, 1654.0, 1652.0, 1654.0, 1654.0, 1653.0, 1656.0, 1652.0, 1655.0, 1653.0, 1658.0, 1662.0, 1658.0, 1659.0, 1656.0, 1656.0, 1651.0, 1653.0, 1651.0, 1654.0, 1652.0, 1652.0, 1653.0, 1651.0, 1653.0, 1651.0, 1652.0, 1655.0, 1655.0, 1653.0, 1656.0, 1654.0, 1655.0, 1654.0, 1658.0, 1656.0, 1663.0, 1656.0, 1657.0, 1654.0, 1656.0, 1663.0, 1659.0, 1662.0, 1660.0, 1656.0, 1657.0, 1651.0, 1654.0, 1656.0, 1658.0, 1657.0, 1655.0, 1652.0, 1657.0, 1655.0, 1656.0, 1652.0, 1653.0, 1654.0, 1665.0, 1669.0, 1656.0, 1653.0, 1654.0, 1654.0, 1651.0, 1653.0, 1659.0, 1654.0, 1656.0, 1654.0, 1655.0, 1653.0, 1651.0, 1654.0, 1654.0, 1659.0, 1654.0, 1654.0, 1655.0, 1657.0, 1658.0, 1657.0, 1659.0, 1659.0, 1658.0, 1662.0, 1661.0, 1659.0, 1658.0, 1656.0, 1655.0, 1655.0, 1658.0, 1652.0, 1663.0, 1665.0, 1663.0, 1655.0, 1654.0, 1654.0, 1655.0, 1663.0, 1654.0, 1658.0, 1655.0, 1656.0, 1656.0, 1662.0, 1668.0, 1660.0, 1655.0, 1657.0, 1656.0, 1658.0, 1656.0, 1655.0, 1653.0, 1657.0]
    },
    "slices": {}
  }
}