{
  "aor": 0.004935941422594142,
  "aqi": 0.03021522259414226,
  "bids_meta": {
    "AcquisitionMatrixPE": 68,
    "AcquisitionNumber": 1,
    "AcquisitionTime": "12:24:52.242500",
    "BandwidthPerPixelPhaseEncode": 31.289,
    "BaseResolution": 68,
    "CogAtlasID": "TODO",
    "CoilString": "C:HEA;HEP",
    "ConversionSoftware": "dcm2niix",
    "ConversionSoftwareVersion": "v1.0.20190902",
    "DerivedVendorReportedEchoSpacing": 0.000470002,
    "DeviceSerialNumber": "35450",
    "DwellTime": 3e-06,
    "EchoTime": 0.023,
    "EffectiveEchoSpacing": 0.000470002,
    "FlipAngle": 76,
    "ImageOrientationPatientDICOM": [
      0.999816,
      0.00103812,
      0.0191694,
      5.21597e-08,
      0.998537,
      -0.0540788
    ],
    "ImageType": [
      "ORIGINAL",
      "PRIMARY",
      "M",
      "ND",
      "MOSAIC"
    ],
    "ImagingFrequency": 123.219,
    "InPlanePhaseEncodingDirectionDICOM": "COL",
    "InstitutionAddress": "Univeristy_Ave._197_Newark_North_East_US_07102-1814",
    "InstitutionName": "RUBIC",
    "InstitutionalDepartmentName": "Department",
    "MRAcquisitionType": "2D",
    "MagneticFieldStrength": 3,
    "Manufacturer": "Siemens",
    "ManufacturersModelName": "TrioTim",
    "Modality": "MR",
    "PartialFourier": 1,
    "PatientPosition": "HFS",
    "PercentPhaseFOV": 100,
    "PhaseEncodingDirection": "j-",
    "PhaseEncodingSteps": 68,
    "PhaseResolution": 1,
    "PixelBandwidth": 2451,
    "ProcedureStepDescription": "Krekelberg_David",
    "ProtocolName": "ep2d_bold_RestEPI_2",
    "PulseSequenceDetails": "%SiemensSeq%_ep2d_bold",
    "ReceiveCoilName": "HeadMatrix",
    "ReconMatrixPE": 68,
    "RepetitionTime": 2,
    "SAR": 0.163937,
    "ScanOptions": "FS",
    "ScanningSequence": "EP",
    "SequenceName": "_epfid2d1_68",
    "SequenceVariant": "SK",
    "SeriesDescription": "ep2d_bold_RestEPI_2",
    "SeriesNumber": 9,
    "ShimSetting": [
      2008,
      -516,
      -7874,
      641,
      420,
      761,
      -177,
      -18
    ],
    "SliceThickness": 2.5,
    "SliceTiming": [
      1.9525,
      1.8975,
      1.84,
      1.785,
      1.73,
      1.675,
      1.6175,
      1.5625,
      1.5075,
      1.45,
      1.395,
      1.34,
      1.2825,
      1.2275,
      1.1725,
      1.115,
      1.06,
      1.005,
      0.95,
      0.8925,
      0.8375,
      0.7825,
      0.725,
      0.67,
      0.615,
      0.5575,
      0.5025,
      0.4475,
      0.3925,
      0.335,
      0.28,
      0.225,
      0.1675,
      0.1125,
      0.0575,
      0
    ],
    "SoftwareVersions": "syngo_MR_B19",
    "SpacingBetweenSlices": 3,
    "StationName": "MRC35450",
    "TaskName": "rest",
    "TotalReadoutTime": 0.0314901,
    "TxRefAmp": 349.196,
    "dataset": "<unset>",
    "dcmmeta_affine": [
      [
        -2.9994471073150635,
        1.564792029284945e-07,
        0.05759232118725777,
        101.65129852294922
      ],
      [
        -0.0031143680680543184,
        2.995609998703003,
        -0.16220654547214508,
        -80.99466705322266
      ],
      [
        0.05750805139541626,
        0.16223643720149994,
        2.995058059692383,
        -29.214096069335938
      ],
      [
        0.0,
        0.0,
        0.0,
        1.0
      ]
    ],
    "dcmmeta_reorient_transform": [
      [
        0.0,
        -1.0,
        0.0,
        67.0
      ],
      [
        1.0,
        0.0,
        0.0,
        0.0
      ],
      [
        0.0,
        0.0,
        1.0,
        0.0
      ],
      [
        0.0,
        0.0,
        0.0,
        1.0
      ]
    ],
    "dcmmeta_shape": [
      68,
      68,
      36,
      240
    ],
    "dcmmeta_slice_dim": 2,
    "dcmmeta_version": 0.6,
    "global": {
      "const": {
        "AcquisitionMatrix": [
          68,
          0,
          0,
          68
        ],
        "AngioFlag": "N",
        "BitsAllocated": 16,
        "BitsStored": 12,
        "Columns": 408,
        "EchoNumbers": 1,
        "EchoTime": 23.0,
        "EchoTrainLength": 1,
        "FlipAngle": 76.0,
        "HighBit": 11,
        "ImageOrientationPatient": [
          0.9998157121633,
          0.00103812269699,
          0.01916935086707,
          5.2159735e-08,
          0.99853667035216,
          -0.0540788125056
        ],
        "ImagePositionPatient": [
          -611.55734815661,
          -629.4943471681,
          -0.5404292373454
        ],
        "ImageType": [
          "ORIGINAL",
          "PRIMARY",
          "M",
          "ND",
          "MOSAIC"
        ],
        "ImagedNucleus": "1H",
        "ImagingFrequency": 123.218686,
        "InPlanePhaseEncodingDirection": "COL",
        "MRAcquisitionType": "2D",
        "MagneticFieldStrength": 3.0,
        "Manufacturer": "SIEMENS",
        "ManufacturerModelName": "TrioTim",
        "Modality": "MR",
        "NumberOfAverages": 1.0,
        "NumberOfPhaseEncodingSteps": 68,
        "PercentPhaseFieldOfView": 100.0,
        "PercentSampling": 100.0,
        "PerformedProcedureStepStartTime": "113416.406000",
        "PhotometricInterpretation": "MONOCHROME2",
        "PixelBandwidth": 2451.0,
        "PixelRepresentation": 0,
        "PixelSpacing": [
          3.0,
          3.0
        ],
        "ProtocolName": "ep2d_bold_RestEPI_2",
        "RepetitionTime": 2000.0,
        "Rows": 408,
        "SAR": 0.1639368425775,
        "SamplesPerPixel": 1,
        "ScanOptions": "FS",
        "ScanningSequence": "EP",
        "SequenceName": "*epfid2d1_68",
        "SequenceVariant": "SK",
        "SeriesDescription": "ep2d_bold_RestEPI_2",
        "SeriesNumber": 9,
        "SeriesTime": "122532.375000",
        "SliceLocation": -22.83523714394,
        "SliceThickness": 2.5,
        "SmallestImagePixelValue": 0,
        "SoftwareVersions": "syngo MR B19",
        "SpacingBetweenSlices": 3.0000001046662,
        "SpecificCharacterSet": "ISO_IR 100",
        "StudyID": "1",
        "StudyTime": "113416.359000",
        "TransmitCoilName": "Body",
        "VariableFlipAngleFlag": "N",
        "WindowCenterWidthExplanation": "Algo1",
        "dBdt": 0.0
      },
      "slices": {}
    },
    "modality": "bold",
    "run_id": 2,
    "subject_id": "238",
    "task_id": "rest",
    "time": {
      "samples": {
        "AcquisitionNumber": [
          1,
          2,
          3,
          4,
          5,
          6,
          7,
          8,
          9,
          10,
          11,
          12,
          13,
          14,
          15,
          16,
          17,
          18,
          19,
          20,
          21,
          22,
          23,
          24,
          25,
          26,
          27,
          28,
          29,
          30,
          31,
          32,
          33,
          34,
          35,
          36,
          37,
          38,
          39,
          40,
          41,
          42,
          43,
          44,
          45,
          46,
          47,
          48,
          49,
          50,
          51,
          52,
          53,
          54,
          55,
          56,
          57,
          58,
          59,
          60,
          61,
          62,
          63,
          64,
          65,
          66,
          67,
          68,
          69,
          70,
          71,
          72,
          73,
          74,
          75,
          76,
          77,
          78,
          79,
          80,
          81,
          82,
          83,
          84,
          85,
          86,
          87,
          88,
          89,
          90,
          91,
          92,
          93,
          94,
          95,
          96,
          97,
          98,
          99,
          100,
          101,
          102,
          103,
          104,
          105,
          106,
          107,
          108,
          109,
          110,
          111,
          112,
          113,
          114,
          115,
          116,
          117,
          118,
          119,
          120,
          121,
          122,
          123,
          124,
          125,
          126,
          127,
          128,
          129,
          130,
          131,
          132,
          133,
          134,
          135,
          136,
          137,
          138,
          139,
          140,
          141,
          142,
          143,
          144,
          145,
          146,
          147,
          148,
          149,
          150,
          151,
          152,
          153,
          154,
          155,
          156,
          157,
          158,
          159,
          160,
          161,
          162,
          163,
          164,
          165,
          166,
          167,
          168,
          169,
          170,
          171,
          172,
          173,
          174,
          175,
          176,
          177,
          178,
          179,
          180,
          181,
          182,
          183,
          184,
          185,
          186,
          187,
          188,
          189,
          190,
          191,
          192,
          193,
          194,
          195,
          196,
          197,
          198,
          199,
          200,
          201,
          202,
          203,
          204,
          205,
          206,
          207,
          208,
          209,
          210,
          211,
          212,
          213,
          214,
          215,
          216,
          217,
          218,
          219,
          220,
          221,
          222,
          223,
          224,
          225,
          226,
          227,
          228,
          229,
          230,
          231,
          232,
          233,
          234,
          235,
          236,
          237,
          238,
          239,
          240
        ],
        "AcquisitionTime": [
          "122452.242500",
          "122454.250000",
          "122456.257500",
          "122458.267500",
          "122500.275000",
          "122502.282500",
          "122504.290000",
          "122506.300000",
          "122508.307500",
          "122510.315000",
          "122512.322500",
          "122514.330000",
          "122516.340000",
          "122518.347500",
          "122520.355000",
          "122522.362500",
          "122524.370000",
          "122526.380000",
          "122528.387500",
          "122530.395000",
          "122532.402500",
          "122534.412500",
          "122536.420000",
          "122538.427500",
          "122540.435000",
          "122542.442500",
          "122544.452500",
          "122546.460000",
          "122548.467500",
          "122550.475000",
          "122552.482500",
          "122554.492500",
          "122556.500000",
          "122558.507500",
          "122600.515000",
          "122602.525000",
          "122604.532500",
          "122606.540000",
          "122608.547500",
          "122610.555000",
          "122612.565000",
          "122614.572500",
          "122616.580000",
          "122618.587500",
          "122620.595000",
          "122622.605000",
          "122624.612500",
          "122626.620000",
          "122628.627500",
          "122630.635000",
          "122632.645000",
          "122634.652500",
          "122636.660000",
          "122638.667500",
          "122640.677500",
          "122642.685000",
          "122644.692500",
          "122646.700000",
          "122648.707500",
          "122650.717500",
          "122652.725000",
          "122654.732500",
          "122656.740000",
          "122658.747500",
          "122700.757500",
          "122702.765000",
          "122704.772500",
          "122706.780000",
          "122708.790000",
          "122710.797500",
          "122712.805000",
          "122714.812500",
          "122716.820000",
          "122718.830000",
          "122720.837500",
          "122722.845000",
          "122724.852500",
          "122726.860000",
          "122728.870000",
          "122730.877500",
          "122732.885000",
          "122734.892500",
          "122736.902500",
          "122738.910000",
          "122740.917500",
          "122742.925000",
          "122744.932500",
          "122746.942500",
          "122748.950000",
          "122750.957500",
          "122752.965000",
          "122754.972500",
          "122756.982500",
          "122758.990000",
          "122800.997500",
          "122803.005000",
          "122805.012500",
          "122807.022500",
          "122809.030000",
          "122811.037500",
          "122813.045000",
          "122815.055000",
          "122817.062500",
          "122819.070000",
          "122821.077500",
          "122823.085000",
          "122825.095000",
          "122827.102500",
          "122829.110000",
          "122831.117500",
          "122833.125000",
          "122835.135000",
          "122837.142500",
          "122839.150000",
          "122841.157500",
          "122843.167500",
          "122845.175000",
          "122847.182500",
          "122849.190000",
          "122851.197500",
          "122853.207500",
          "122855.215000",
          "122857.222500",
          "122859.230000",
          "122901.237500",
          "122903.247500",
          "122905.255000",
          "122907.262500",
          "122909.270000",
          "122911.280000",
          "122913.287500",
          "122915.295000",
          "122917.302500",
          "122919.310000",
          "122921.320000",
          "122923.327500",
          "122925.335000",
          "122927.342500",
          "122929.350000",
          "122931.360000",
          "122933.367500",
          "122935.375000",
          "122937.382500",
          "122939.390000",
          "122941.400000",
          "122943.407500",
          "122945.415000",
          "122947.422500",
          "122949.432500",
          "122951.440000",
          "122953.447500",
          "122955.455000",
          "122957.462500",
          "122959.472500",
          "123001.480000",
          "123003.487500",
          "123005.495000",
          "123007.502500",
          "123009.512500",
          "123011.520000",
          "123013.527500",
          "123015.535000",
          "123017.545000",
          "123019.552500",
          "123021.560000",
          "123023.567500",
          "123025.575000",
          "123027.585000",
          "123029.592500",
          "123031.600000",
          "123033.607500",
          "123035.615000",
          "123037.625000",
          "123039.632500",
          "123041.640000",
          "123043.647500",
          "123045.657500",
          "123047.665000",
          "123049.672500",
          "123051.680000",
          "123053.687500",
          "123055.697500",
          "123057.705000",
          "123059.712500",
          "123101.720000",
          "123103.727500",
          "123105.737500",
          "123107.745000",
          "123109.752500",
          "123111.760000",
          "123113.767500",
          "123115.777500",
          "123117.785000",
          "123119.792500",
          "123121.800000",
          "123123.810000",
          "123125.817500",
          "123127.825000",
          "123129.832500",
          "123131.840000",
          "123133.850000",
          "123135.857500",
          "123137.865000",
          "123139.872500",
          "123141.880000",
          "123143.890000",
          "123145.897500",
          "123147.905000",
          "123149.912500",
          "123151.922500",
          "123153.930000",
          "123155.937500",
          "123157.945000",
          "123159.952500",
          "123201.962500",
          "123203.970000",
          "123205.977500",
          "123207.985000",
          "123209.992500",
          "123212.002500",
          "123214.010000",
          "123216.017500",
          "123218.025000",
          "123220.035000",
          "123222.042500",
          "123224.050000",
          "123226.057500",
          "123228.065000",
          "123230.075000",
          "123232.082500",
          "123234.090000",
          "123236.097500",
          "123238.105000",
          "123240.115000",
          "123242.122500",
          "123244.130000",
          "123246.137500",
          "123248.145000",
          "123250.155000",
          "123252.162500"
        ],
        "ContentTime": [
          "122532.375000",
          "122532.390000",
          "122532.390000",
          "122532.390000",
          "122532.390000",
          "122532.406000",
          "122532.406000",
          "122532.406000",
          "122532.406000",
          "122532.406000",
          "122532.406000",
          "122532.406000",
          "122532.406000",
          "122532.421000",
          "122532.421000",
          "122532.421000",
          "122532.421000",
          "122532.421000",
          "122532.421000",
          "122532.421000",
          "122612.375000",
          "122612.375000",
          "122612.375000",
          "122612.390000",
          "122612.390000",
          "122612.390000",
          "122612.390000",
          "122612.390000",
          "122612.390000",
          "122612.390000",
          "122612.406000",
          "122612.406000",
          "122612.406000",
          "122612.406000",
          "122612.406000",
          "122612.406000",
          "122612.406000",
          "122612.406000",
          "122612.421000",
          "122612.421000",
          "122632.375000",
          "122632.375000",
          "122632.375000",
          "122632.390000",
          "122632.390000",
          "122632.390000",
          "122632.390000",
          "122632.390000",
          "122632.390000",
          "122632.390000",
          "122712.375000",
          "122712.375000",
          "122712.390000",
          "122712.390000",
          "122712.390000",
          "122712.390000",
          "122712.390000",
          "122712.390000",
          "122712.390000",
          "122712.406000",
          "122712.406000",
          "122712.406000",
          "122712.406000",
          "122712.406000",
          "122712.406000",
          "122712.406000",
          "122712.406000",
          "122712.421000",
          "122712.421000",
          "122712.421000",
          "122752.375000",
          "122752.375000",
          "122752.375000",
          "122752.390000",
          "122752.390000",
          "122752.390000",
          "122752.390000",
          "122752.390000",
          "122752.390000",
          "122752.390000",
          "122752.406000",
          "122752.406000",
          "122752.406000",
          "122752.406000",
          "122752.406000",
          "122752.406000",
          "122752.406000",
          "122752.421000",
          "122752.421000",
          "122752.421000",
          "122832.375000",
          "122832.375000",
          "122832.390000",
          "122832.390000",
          "122832.390000",
          "122832.390000",
          "122832.390000",
          "122832.390000",
          "122832.390000",
          "122832.390000",
          "122832.406000",
          "122832.406000",
          "122832.406000",
          "122832.406000",
          "122832.406000",
          "122832.406000",
          "122832.406000",
          "122832.421000",
          "122832.421000",
          "122832.421000",
          "122912.375000",
          "122912.375000",
          "122912.375000",
          "122912.390000",
          "122912.390000",
          "122912.390000",
          "122912.390000",
          "122912.390000",
          "122912.390000",
          "122912.390000",
          "122912.406000",
          "122912.406000",
          "122912.406000",
          "122912.406000",
          "122912.406000",
          "122912.406000",
          "122912.406000",
          "122912.421000",
          "122912.421000",
          "122912.421000",
          "122952.375000",
          "122952.375000",
          "122952.375000",
          "122952.390000",
          "122952.390000",
          "122952.390000",
          "122952.390000",
          "122952.390000",
          "122952.390000",
          "122952.390000",
          "122952.406000",
          "122952.406000",
          "122952.406000",
          "122952.406000",
          "122952.406000",
          "122952.406000",
          "122952.406000",
          "122952.406000",
          "122952.421000",
          "122952.421000",
          "123032.375000",
          "123032.375000",
          "123032.375000",
          "123032.390000",
          "123032.390000",
          "123032.390000",
          "123032.390000",
          "123032.390000",
          "123032.390000",
          "123032.390000",
          "123032.406000",
          "123032.406000",
          "123032.406000",
          "123032.406000",
          "123032.406000",
          "123032.406000",
          "123032.406000",
          "123032.421000",
          "123032.421000",
          "123032.421000",
          "123112.375000",
          "123112.375000",
          "123112.375000",
          "123112.390000",
          "123112.390000",
          "123112.390000",
          "123112.390000",
          "123112.390000",
          "123112.390000",
          "123112.406000",
          "123112.406000",
          "123112.406000",
          "123112.406000",
          "123112.406000",
          "123112.406000",
          "123112.406000",
          "123112.421000",
          "123112.421000",
          "123112.421000",
          "123112.421000",
          "123152.375000",
          "123152.375000",
          "123152.390000",
          "123152.390000",
          "123152.390000",
          "123152.390000",
          "123152.390000",
          "123152.390000",
          "123152.390000",
          "123152.390000",
          "123152.406000",
          "123152.406000",
          "123152.406000",
          "123152.406000",
          "123152.406000",
          "123152.406000",
          "123152.406000",
          "123152.421000",
          "123152.421000",
          "123152.421000",
          "123232.375000",
          "123232.375000",
          "123232.375000",
          "123232.390000",
          "123232.390000",
          "123232.390000",
          "123232.390000",
          "123232.390000",
          "123232.390000",
          "123232.390000",
          "123232.406000",
          "123232.406000",
          "123232.406000",
          "123232.406000",
          "123232.406000",
          "123232.406000",
          "123232.406000",
          "123232.406000",
          "123232.421000",
          "123232.421000",
          "123251.203000",
          "123251.203000",
          "123251.203000",
          "123251.203000",
          "123251.203000",
          "123251.203000",
          "123251.218000",
          "123251.218000",
          "123251.218000",
          "123251.218000"
        ],
        "InstanceCreationTime": [
          "122532.375000",
          "122532.390000",
          "122532.390000",
          "122532.390000",
          "122532.390000",
          "122532.406000",
          "122532.406000",
          "122532.406000",
          "122532.406000",
          "122532.406000",
          "122532.406000",
          "122532.406000",
          "122532.406000",
          "122532.421000",
          "122532.421000",
          "122532.421000",
          "122532.421000",
          "122532.421000",
          "122532.421000",
          "122532.421000",
          "122612.375000",
          "122612.375000",
          "122612.375000",
          "122612.390000",
          "122612.390000",
          "122612.390000",
          "122612.390000",
          "122612.390000",
          "122612.390000",
          "122612.390000",
          "122612.406000",
          "122612.406000",
          "122612.406000",
          "122612.406000",
          "122612.406000",
          "122612.406000",
          "122612.406000",
          "122612.406000",
          "122612.421000",
          "122612.421000",
          "122632.375000",
          "122632.375000",
          "122632.375000",
          "122632.390000",
          "122632.390000",
          "122632.390000",
          "122632.390000",
          "122632.390000",
          "122632.390000",
          "122632.390000",
          "122712.375000",
          "122712.375000",
          "122712.390000",
          "122712.390000",
          "122712.390000",
          "122712.390000",
          "122712.390000",
          "122712.390000",
          "122712.390000",
          "122712.406000",
          "122712.406000",
          "122712.406000",
          "122712.406000",
          "122712.406000",
          "122712.406000",
          "122712.406000",
          "122712.406000",
          "122712.421000",
          "122712.421000",
          "122712.421000",
          "122752.375000",
          "122752.375000",
          "122752.375000",
          "122752.390000",
          "122752.390000",
          "122752.390000",
          "122752.390000",
          "122752.390000",
          "122752.390000",
          "122752.390000",
          "122752.406000",
          "122752.406000",
          "122752.406000",
          "122752.406000",
          "122752.406000",
          "122752.406000",
          "122752.406000",
          "122752.421000",
          "122752.421000",
          "122752.421000",
          "122832.375000",
          "122832.375000",
          "122832.390000",
          "122832.390000",
          "122832.390000",
          "122832.390000",
          "122832.390000",
          "122832.390000",
          "122832.390000",
          "122832.390000",
          "122832.406000",
          "122832.406000",
          "122832.406000",
          "122832.406000",
          "122832.406000",
          "122832.406000",
          "122832.406000",
          "122832.421000",
          "122832.421000",
          "122832.421000",
          "122912.375000",
          "122912.375000",
          "122912.375000",
          "122912.390000",
          "122912.390000",
          "122912.390000",
          "122912.390000",
          "122912.390000",
          "122912.390000",
          "122912.390000",
          "122912.406000",
          "122912.406000",
          "122912.406000",
          "122912.406000",
          "122912.406000",
          "122912.406000",
          "122912.406000",
          "122912.421000",
          "122912.421000",
          "122912.421000",
          "122952.375000",
          "122952.375000",
          "122952.375000",
          "122952.390000",
          "122952.390000",
          "122952.390000",
          "122952.390000",
          "122952.390000",
          "122952.390000",
          "122952.390000",
          "122952.406000",
          "122952.406000",
          "122952.406000",
          "122952.406000",
          "122952.406000",
          "122952.406000",
          "122952.406000",
          "122952.406000",
          "122952.421000",
          "122952.421000",
          "123032.375000",
          "123032.375000",
          "123032.375000",
          "123032.390000",
          "123032.390000",
          "123032.390000",
          "123032.390000",
          "123032.390000",
          "123032.390000",
          "123032.390000",
          "123032.406000",
          "123032.406000",
          "123032.406000",
          "123032.406000",
          "123032.406000",
          "123032.406000",
          "123032.406000",
          "123032.421000",
          "123032.421000",
          "123032.421000",
          "123112.375000",
          "123112.375000",
          "123112.375000",
          "123112.390000",
          "123112.390000",
          "123112.390000",
          "123112.390000",
          "123112.390000",
          "123112.390000",
          "123112.406000",
          "123112.406000",
          "123112.406000",
          "123112.406000",
          "123112.406000",
          "123112.406000",
          "123112.406000",
          "123112.421000",
          "123112.421000",
          "123112.421000",
          "123112.421000",
          "123152.375000",
          "123152.375000",
          "123152.390000",
          "123152.390000",
          "123152.390000",
          "123152.390000",
          "123152.390000",
          "123152.390000",
          "123152.390000",
          "123152.390000",
          "123152.406000",
          "123152.406000",
          "123152.406000",
          "123152.406000",
          "123152.406000",
          "123152.406000",
          "123152.406000",
          "123152.421000",
          "123152.421000",
          "123152.421000",
          "123232.375000",
          "123232.375000",
          "123232.375000",
          "123232.390000",
          "123232.390000",
          "123232.390000",
          "123232.390000",
          "123232.390000",
          "123232.390000",
          "123232.390000",
          "123232.406000",
          "123232.406000",
          "123232.406000",
          "123232.406000",
          "123232.406000",
          "123232.406000",
          "123232.406000",
          "123232.406000",
          "123232.421000",
          "123232.421000",
          "123251.203000",
          "123251.203000",
          "123251.203000",
          "123251.203000",
          "123251.203000",
          "123251.203000",
          "123251.218000",
          "123251.218000",
          "123251.218000",
          "123251.218000"
        ],
        "InstanceNumber": [
          1,
          2,
          3,
          4,
          5,
          6,
          7,
          8,
          9,
          10,
          11,
          12,
          13,
          14,
          15,
          16,
          17,
          18,
          19,
          20,
          21,
          22,
          23,
          24,
          25,
          26,
          27,
          28,
          29,
          30,
          31,
          32,
          33,
          34,
          35,
          36,
          37,
          38,
          39,
          40,
          41,
          42,
          43,
          44,
          45,
          46,
