{
  "aor": 0.010123720930232559,
  "aqi": 0.03781610503875969,
  "bids_meta": {
    "AcquisitionMatrixPE": 68,
    "AcquisitionNumber": 1,
    "AcquisitionTime": "12:53:4.550000",
    "BandwidthPerPixelPhaseEncode": 31.289,
    "BaseResolution": 68,
    "CogAtlasID": "TODO",
    "CoilString": "C:HEA;HEP",
    "ConversionSoftware": "dcm2niix",
    "ConversionSoftwareVersion": "v1.0.20190902",
    "DerivedVendorReportedEchoSpacing": 0.000470002,
    "DeviceSerialNumber": "35450",
    "DwellTime": 3e-06,
    "EchoTime": 0.023,
    "EffectiveEchoSpacing": 0.000470002,
    "FlipAngle": 76,
    "ImageOrientationPatientDICOM": [
      0.999816,
      0.00103812,
      0.0191694,
      5.21597e-08,
      0.998537,
      -0.0540788
    ],
    "ImageType": [
      "ORIGINAL",
      "PRIMARY",
      "M",
      "ND",
      "MOSAIC"
    ],
    "ImagingFrequency": 123.219,
    "InPlanePhaseEncodingDirectionDICOM": "COL",
    "InstitutionAddress": "Univeristy_Ave._197_Newark_North_East_US_07102-1814",
    "InstitutionName": "RUBIC",
    "InstitutionalDepartmentName": "Department",
    "MRAcquisitionType": "2D",
    "MagneticFieldStrength": 3,
    "Manufacturer": "Siemens",
    "ManufacturersModelName": "TrioTim",
    "Modality": "MR",
    "PartialFourier": 1,
    "PatientPosition": "HFS",
    "PercentPhaseFOV": 100,
    "PhaseEncodingDirection": "j-",
    "PhaseEncodingSteps": 68,
    "PhaseResolution": 1,
    "PixelBandwidth": 2451,
    "ProcedureStepDescription": "Krekelberg_David",
    "ProtocolName": "ep2d_bold_CardGameEPI_3",
    "PulseSequenceDetails": "%SiemensSeq%_ep2d_bold",
    "ReceiveCoilName": "HeadMatrix",
    "ReconMatrixPE": 68,
    "RepetitionTime": 2,
    "SAR": 0.163972,
    "ScanOptions": "FS",
    "ScanningSequence": "EP",
    "SequenceName": "_epfid2d1_68",
    "SequenceVariant": "SK",
    "SeriesDescription": "ep2d_bold_CardGameEPI_3",
    "SeriesNumber": 12,
    "ShimSetting": [
      2008,
      -516,
      -7874,
      641,
      420,
      761,
      -177,
      -18
    ],
    "SliceThickness": 2.5,
    "SliceTiming": [
      1.9525,
      1.895,
      1.84,
      1.785,
      1.73,
      1.6725,
      1.6175,
      1.5625,
      1.505,
      1.45,
      1.395,
      1.3375,
      1.2825,
      1.2275,
      1.17,
      1.115,
      1.06,
      1.005,
      0.9475,
      0.8925,
      0.8375,
      0.78,
      0.725,
      0.67,
      0.6125,
      0.5575,
      0.5025,
      0.445,
      0.39,
      0.335,
      0.28,
      0.2225,
      0.1675,
      0.1125,
      0.055,
      0
    ],
    "SoftwareVersions": "syngo_MR_B19",
    "SpacingBetweenSlices": 3,
    "StationName": "MRC35450",
    "TaskName": "cardgame",
    "TotalReadoutTime": 0.0314901,
    "TxRefAmp": 349.196,
    "dataset": "<unset>",
    "dcmmeta_affine": [
      [
        -2.9994471073150635,
        1.564792029284945e-07,
        0.05759232118725777,
        101.65129852294922
      ],
      [
        -0.0031143680680543184,
        2.995609998703003,
        -0.16220654547214508,
        -80.99466705322266
      ],
      [
        0.05750805139541626,
        0.16223643720149994,
        2.995058059692383,
        -29.214096069335938
      ],
      [
        0.0,
        0.0,
        0.0,
        1.0
      ]
    ],
    "dcmmeta_reorient_transform": [
      [
        0.0,
        -1.0,
        0.0,
        67.0
      ],
      [
        1.0,
        0.0,
        0.0,
        0.0
      ],
      [
        0.0,
        0.0,
        1.0,
        0.0
      ],
      [
        0.0,
        0.0,
        0.0,
        1.0
      ]
    ],
    "dcmmeta_shape": [
      68,
      68,
      36,
      258
    ],
    "dcmmeta_slice_dim": 2,
    "dcmmeta_version": 0.6,
    "global": {
      "const": {
        "AcquisitionMatrix": [
          68,
          0,
          0,
          68
        ],
        "AngioFlag": "N",
        "BitsAllocated": 16,
        "BitsStored": 12,
        "Columns": 408,
        "EchoNumbers": 1,
        "EchoTime": 23.0,
        "EchoTrainLength": 1,
        "FlipAngle": 76.0,
        "HighBit": 11,
        "ImageOrientationPatient": [
          0.9998157121633,
          0.00103812269699,
          0.01916935086707,
          5.2159735e-08,
          0.99853667035216,
          -0.0540788125056
        ],
        "ImagePositionPatient": [
          -611.55734815661,
          -629.4943471681,
          -0.5404292373454
        ],
        "ImageType": [
          "ORIGINAL",
          "PRIMARY",
          "M",
          "ND",
          "MOSAIC"
        ],
        "ImagedNucleus": "1H",
        "ImagingFrequency": 123.218726,
        "InPlanePhaseEncodingDirection": "COL",
        "MRAcquisitionType": "2D",
        "MagneticFieldStrength": 3.0,
        "Manufacturer": "SIEMENS",
        "ManufacturerModelName": "TrioTim",
        "Modality": "MR",
        "NumberOfAverages": 1.0,
        "NumberOfPhaseEncodingSteps": 68,
        "PercentPhaseFieldOfView": 100.0,
        "PercentSampling": 100.0,
        "PerformedProcedureStepStartTime": "113416.406000",
        "PhotometricInterpretation": "MONOCHROME2",
        "PixelBandwidth": 2451.0,
        "PixelRepresentation": 0,
        "PixelSpacing": [
          3.0,
          3.0
        ],
        "ProtocolName": "ep2d_bold_CardGameEPI_3",
        "RepetitionTime": 2000.0,
        "Rows": 408,
        "SAR": 0.1639719153947,
        "SamplesPerPixel": 1,
        "ScanOptions": "FS",
        "ScanningSequence": "EP",
        "SequenceName": "*epfid2d1_68",
        "SequenceVariant": "SK",
        "SeriesDescription": "ep2d_bold_CardGameEPI_3",
        "SeriesNumber": 12,
        "SeriesTime": "125352.375000",
        "SliceLocation": -22.83523714394,
        "SliceThickness": 2.5,
        "SmallestImagePixelValue": 0,
        "SoftwareVersions": "syngo MR B19",
        "SpacingBetweenSlices": 3.0000001046662,
        "SpecificCharacterSet": "ISO_IR 100",
        "StudyID": "1",
        "StudyTime": "113416.359000",
        "TransmitCoilName": "Body",
        "VariableFlipAngleFlag": "N",
        "WindowCenterWidthExplanation": "Algo1",
        "dBdt": 0.0
      },
      "slices": {}
    },
    "modality": "bold",
    "run_id": 3,
    "subject_id": "238",
    "task_id": "cardgame",
    "time": {
      "samples": {
        "AcquisitionNumber": [
          1,
          2,
          3,
          4,
          5,
          6,
          7,
          8,
          9,
          10,
          11,
          12,
          13,
          14,
          15,
          16,
          17,
          18,
          19,
          20,
          21,
          22,
          23,
          24,
          25,
          26,
          27,
          28,
          29,
          30,
          31,
          32,
          33,
          34,
          35,
          36,
          37,
          38,
          39,
          40,
          41,
          42,
          43,
          44,
          45,
          46,
          47,
          48,
          49,
          50,
          51,
          52,
          53,
          54,
          55,
          56,
          57,
          58,
          59,
          60,
          61,
          62,
          63,
          64,
          65,
          66,
          67,
          68,
          69,
          70,
          71,
          72,
          73,
          74,
          75,
          76,
          77,
          78,
          79,
          80,
          81,
          82,
          83,
          84,
          85,
          86,
          87,
          88,
          89,
          90,
          91,
          92,
          93,
          94,
          95,
          96,
          97,
          98,
          99,
          100,
          101,
          102,
          103,
          104,
          105,
          106,
          107,
          108,
          109,
          110,
          111,
          112,
          113,
          114,
          115,
          116,
          117,
          118,
          119,
          120,
          121,
          122,
          123,
          124,
          125,
          126,
          127,
          128,
          129,
          130,
          131,
          132,
          133,
          134,
          135,
          136,
          137,
          138,
          139,
          140,
          141,
          142,
          143,
          144,
          145,
          146,
          147,
          148,
          149,
          150,
          151,
          152,
          153,
          154,
          155,
          156,
          157,
          158,
          159,
          160,
          161,
          162,
          163,
          164,
          165,
          166,
          167,
          168,
          169,
          170,
          171,
          172,
          173,
          174,
          175,
          176,
          177,
          178,
          179,
          180,
          181,
          182,
          183,
          184,
          185,
          186,
          187,
          188,
          189,
          190,
          191,
          192,
          193,
          194,
          195,
          196,
          197,
          198,
          199,
          200,
          201,
          202,
          203,
          204,
          205,
          206,
          207,
          208,
          209,
          210,
          211,
          212,
          213,
          214,
          215,
          216,
          217,
          218,
          219,
          220,
          221,
          222,
          223,
          224,
          225,
          226,
          227,
          228,
          229,
          230,
          231,
          232,
          233,
          234,
          235,
          236,
          237,
          238,
          239,
          240,
          241,
          242,
          243,
          244,
          245,
          246,
          247,
          248,
          249,
          250,
          251,
          252,
          253,
          254,
          255,
          256,
          257,
          258
        ],
        "AcquisitionTime": [
          "125304.550000",
          "125306.557500",
          "125308.565000",
          "125310.572500",
          "125312.582500",
          "125314.590000",
          "125316.597500",
          "125318.605000",
          "125320.612500",
          "125322.622500",
          "125324.630000",
          "125326.637500",
          "125328.645000",
          "125330.655000",
          "125332.662500",
          "125334.670000",
          "125336.677500",
          "125338.685000",
          "125340.695000",
          "125342.702500",
          "125344.710000",
          "125346.717500",
          "125348.725000",
          "125350.735000",
          "125352.742500",
          "125354.750000",
          "125356.757500",
          "125358.765000",
          "125400.775000",
          "125402.782500",
          "125404.790000",
          "125406.797500",
          "125408.807500",
          "125410.815000",
          "125412.822500",
          "125414.830000",
          "125416.837500",
          "125418.847500",
          "125420.855000",
          "125422.862500",
          "125424.870000",
          "125426.877500",
          "125428.887500",
          "125430.895000",
          "125432.902500",
          "125434.910000",
          "125436.920000",
          "125438.927500",
          "125440.935000",
          "125442.942500",
          "125444.950000",
          "125446.960000",
          "125448.967500",
          "125450.975000",
          "125452.982500",
          "125454.990000",
          "125457.000000",
          "125459.007500",
          "125501.015000",
          "125503.022500",
          "125505.032500",
          "125507.040000",
          "125509.047500",
          "125511.055000",
          "125513.062500",
          "125515.072500",
          "125517.080000",
          "125519.087500",
          "125521.095000",
          "125523.102500",
          "125525.112500",
          "125527.120000",
          "125529.127500",
          "125531.135000",
          "125533.142500",
          "125535.152500",
          "125537.160000",
          "125539.167500",
          "125541.175000",
          "125543.185000",
          "125545.192500",
          "125547.200000",
          "125549.207500",
          "125551.215000",
          "125553.225000",
          "125555.232500",
          "125557.240000",
          "125559.247500",
          "125601.255000",
          "125603.265000",
          "125605.272500",
          "125607.280000",
          "125609.287500",
          "125611.297500",
          "125613.305000",
          "125615.312500",
          "125617.320000",
          "125619.327500",
          "125621.337500",
          "125623.345000",
          "125625.352500",
          "125627.360000",
          "125629.367500",
          "125631.377500",
          "125633.385000",
          "125635.392500",
          "125637.400000",
          "125639.410000",
          "125641.417500",
          "125643.425000",
          "125645.432500",
          "125647.440000",
          "125649.450000",
          "125651.457500",
          "125653.465000",
          "125655.472500",
          "125657.480000",
          "125659.490000",
          "125701.497500",
          "125703.505000",
          "125705.512500",
          "125707.520000",
          "125709.530000",
          "125711.537500",
          "125713.545000",
          "125715.552500",
          "125717.562500",
          "125719.570000",
          "125721.577500",
          "125723.585000",
          "125725.592500",
          "125727.602500",
          "125729.610000",
          "125731.617500",
          "125733.625000",
          "125735.632500",
          "125737.642500",
          "125739.650000",
          "125741.657500",
          "125743.665000",
          "125745.675000",
          "125747.682500",
          "125749.690000",
          "125751.697500",
          "125753.705000",
          "125755.715000",
          "125757.722500",
          "125759.730000",
          "125801.737500",
          "125803.745000",
          "125805.755000",
          "125807.762500",
          "125809.770000",
          "125811.777500",
          "125813.787500",
          "125815.795000",
          "125817.802500",
          "125819.810000",
          "125821.817500",
          "125823.827500",
          "125825.835000",
          "125827.842500",
          "125829.850000",
          "125831.857500",
          "125833.867500",
          "125835.875000",
          "125837.882500",
          "125839.890000",
          "125841.897500",
          "125843.907500",
          "125845.915000",
          "125847.922500",
          "125849.930000",
          "125851.940000",
          "125853.947500",
          "125855.955000",
          "125857.962500",
          "125859.970000",
          "125901.980000",
          "125903.987500",
          "125905.995000",
          "125908.002500",
          "125910.010000",
          "125912.020000",
          "125914.027500",
          "125916.035000",
          "125918.042500",
          "125920.052500",
          "125922.060000",
          "125924.067500",
          "125926.075000",
          "125928.082500",
          "125930.092500",
          "125932.100000",
          "125934.107500",
          "125936.115000",
          "125938.122500",
          "125940.132500",
          "125942.140000",
          "125944.147500",
          "125946.155000",
          "125948.165000",
          "125950.172500",
          "125952.180000",
          "125954.187500",
          "125956.195000",
          "125958.205000",
          "130000.212500",
          "130002.220000",
          "130004.227500",
          "130006.235000",
          "130008.245000",
          "130010.252500",
          "130012.260000",
          "130014.267500",
          "130016.277500",
          "130018.285000",
          "130020.292500",
          "130022.300000",
          "130024.307500",
          "130026.317500",
          "130028.325000",
          "130030.332500",
          "130032.340000",
          "130034.347500",
          "130036.357500",
          "130038.365000",
          "130040.372500",
          "130042.380000",
          "130044.387500",
          "130046.397500",
          "130048.405000",
          "130050.412500",
          "130052.420000",
          "130054.430000",
          "130056.437500",
          "130058.445000",
          "130100.452500",
          "130102.460000",
          "130104.470000",
          "130106.477500",
          "130108.485000",
          "130110.492500",
          "130112.500000",
          "130114.510000",
          "130116.517500",
          "130118.525000",
          "130120.532500",
          "130122.542500",
          "130124.550000",
          "130126.557500",
          "130128.565000",
          "130130.572500",
          "130132.582500",
          "130134.590000",
          "130136.597500",
          "130138.605000",
          "130140.612500"
        ],
        "ContentTime": [
          "125352.375000",
          "125352.390000",
          "125352.390000",
          "125352.390000",
          "125352.390000",
          "125352.406000",
          "125352.406000",
          "125352.406000",
          "125352.406000",
          "125352.406000",
          "125352.406000",
          "125352.406000",
          "125352.421000",
          "125352.421000",
          "125352.421000",
          "125352.421000",
          "125352.421000",
          "125352.421000",
          "125352.421000",
          "125352.421000",
          "125352.437000",
          "125352.437000",
          "125352.437000",
          "125432.375000",
          "125432.375000",
          "125432.375000",
          "125432.390000",
          "125432.390000",
          "125432.390000",
          "125432.390000",
          "125432.390000",
          "125432.390000",
          "125432.406000",
          "125432.406000",
          "125432.406000",
          "125432.406000",
          "125432.406000",
          "125432.406000",
          "125432.406000",
          "125432.406000",
          "125432.421000",
          "125432.421000",
          "125432.421000",
          "125512.375000",
          "125512.375000",
          "125512.375000",
          "125512.390000",
          "125512.390000",
          "125512.390000",
          "125512.390000",
          "125512.390000",
          "125512.406000",
          "125512.406000",
          "125512.406000",
          "125512.406000",
          "125512.406000",
          "125512.406000",
          "125512.406000",
          "125512.421000",
          "125512.421000",
          "125512.421000",
          "125512.421000",
          "125512.421000",
          "125552.375000",
          "125552.375000",
          "125552.375000",
          "125552.390000",
          "125552.390000",
          "125552.390000",
          "125552.390000",
          "125552.390000",
          "125552.390000",
          "125552.406000",
          "125552.406000",
          "125552.406000",
          "125552.406000",
          "125552.406000",
          "125552.406000",
          "125552.421000",
          "125552.421000",
          "125552.421000",
          "125552.421000",
          "125552.421000",
          "125632.375000",
          "125632.375000",
          "125632.375000",
          "125632.390000",
          "125632.390000",
          "125632.390000",
          "125632.390000",
          "125632.406000",
          "125632.406000",
          "125632.406000",
          "125632.406000",
          "125632.406000",
          "125632.406000",
          "125632.421000",
          "125632.421000",
          "125632.421000",
          "125632.421000",
          "125632.421000",
          "125632.421000",
          "125632.421000",
          "125712.375000",
          "125712.375000",
          "125712.375000",
          "125712.390000",
          "125712.390000",
          "125712.390000",
          "125712.390000",
          "125712.390000",
          "125712.390000",
          "125712.406000",
          "125712.406000",
          "125712.406000",
          "125712.406000",
          "125712.406000",
          "125712.406000",
          "125712.406000",
          "125712.421000",
          "125712.421000",
          "125712.421000",
          "125712.421000",
          "125752.375000",
          "125752.375000",
          "125752.375000",
          "125752.390000",
          "125752.390000",
          "125752.390000",
          "125752.390000",
          "125752.390000",
          "125752.390000",
          "125752.406000",
          "125752.406000",
          "125752.406000",
          "125752.406000",
          "125752.406000",
          "125752.421000",
          "125752.421000",
          "125752.421000",
          "125752.421000",
          "125752.421000",
          "125752.421000",
          "125832.375000",
          "125832.375000",
          "125832.375000",
          "125832.390000",
          "125832.390000",
          "125832.390000",
          "125832.390000",
          "125832.406000",
          "125832.406000",
          "125832.406000",
          "125832.406000",
          "125832.406000",
          "125832.406000",
          "125832.421000",
          "125832.421000",
          "125832.421000",
          "125832.421000",
          "125832.421000",
          "125832.421000",
          "125832.437000",
          "125912.375000",
          "125912.375000",
          "125912.375000",
          "125912.390000",
          "125912.390000",
          "125912.390000",
          "125912.390000",
          "125912.390000",
          "125912.406000",
          "125912.406000",
          "125912.406000",
          "125912.406000",
          "125912.406000",
          "125912.406000",
          "125912.406000",
          "125912.421000",
          "125912.421000",
          "125912.421000",
          "125912.421000",
          "125912.421000",
          "125952.375000",
          "125952.375000",
          "125952.375000",
          "125952.390000",
          "125952.390000",
          "125952.390000",
          "125952.390000",
          "125952.406000",
          "125952.406000",
          "125952.406000",
          "125952.406000",
          "125952.406000",
          "125952.406000",
          "125952.406000",
          "125952.406000",
          "125952.421000",
          "125952.421000",
          "125952.421000",
          "125952.421000",
          "125952.421000",
          "130032.375000",
          "130032.375000",
          "130032.375000",
          "130032.390000",
          "130032.390000",
          "130032.390000",
          "130032.390000",
          "130032.390000",
          "130032.390000",
          "130032.390000",
          "130032.406000",
          "130032.406000",
          "130032.406000",
          "130032.406000",
          "130032.406000",
          "130032.406000",
          "130032.406000",
          "130032.421000",
          "130032.421000",
          "130032.421000",
          "130112.375000",
          "130112.375000",
          "130112.375000",
          "130112.390000",
          "130112.390000",
          "130112.390000",
          "130112.390000",
          "130112.406000",
          "130112.406000",
          "130112.406000",
          "130112.406000",
          "130112.406000",
          "130112.406000",
          "130112.406000",
          "130112.406000",
          "130112.421000",
          "130112.421000",
          "130112.421000",
          "130112.421000",
          "130112.421000",
          "130140.406000",
          "130140.406000",
          "130140.421000",
          "130140.421000",
          "130140.421000",
          "130140.421000",
          "130140.421000",
          "130140.421000",
          "130140.421000",
          "130140.437000",
          "130140.437000",
          "130140.437000",
          "130140.437000",
          "130140.437000",
          "130140.437000"
        ],
        "InstanceCreationTime": [
          "125352.375000",
          "125352.390000",
          "125352.390000",
          "125352.390000",
          "125352.390000",
          "125352.406000",
          "125352.406000",
          "125352.406000",
          "125352.406000",
          "125352.406000",
          "125352.406000",
          "125352.406000",
          "125352.421000",
          "125352.421000",
          "125352.421000",
          "125352.421000",
          "125352.421000",
          "125352.421000",
          "125352.421000",
          "125352.421000",
          "125352.437000",
          "125352.437000",
          "125352.437000",
          "125432.375000",
          "125432.375000",
          "125432.375000",
          "125432.390000",
          "125432.390000",
          "125432.390000",
          "125432.390000",
          "125432.390000",
          "125432.390000",
          "125432.406000",
          "125432.406000",
          "125432.406000",
          "125432.406000",
          "125432.406000",
          "125432.406000",
          "125432.406000",
          "125432.406000",
          "125432.421000",
          "125432.421000",
          "125432.421000",
          "125512.375000",
          "125512.375000",
          "125512.375000",
          "125512.390000",
          "125512.390000",
          "125512.390000",
          "125512.390000",
          "125512.390000",
          "125512.406000",
          "125512.406000",
          "125512.406000",
          "125512.406000",
          "125512.406000",
          "125512.406000",
          "125512.406000",
          "125512.421000",
          "125512.421000",
          "125512.421000",
          "125512.421000",
          "125512.421000",
          "125552.375000",
          "125552.375000",
          "125552.375000",
          "125552.390000",
          "125552.390000",
          "125552.390000",
          "125552.390000",
          "125552.390000",
          "125552.390000",
          "125552.406000",
          "125552.406000",
          "125552.406000",
          "125552.406000",
          "125552.406000",
          "125552.406000",
          "125552.421000",
          "125552.421000",
          "125552.421000",
          "125552.421000",
          "125552.421000",
          "125632.375000",
          "125632.375000",
          "125632.375000",
          "125632.390000",
          "125632.390000",
          "125632.390000",
          "125632.390000",
          "125632.406000",
          "125632.406000",
          "125632.406000",
          "125632.406000",
          "125632.406000",
          "125632.406000",
          "125632.421000",
          "125632.421000",
          "125632.421000",
          "125632.421000",
          "125632.421000",
          "125632.421000",
          "125632.421000",
          "125712.375000",
          "125712.375000",
          "125712.375000",
          "125712.390000",
          "125712.390000",
          "125712.390000",
          "125712.390000",
          "125712.390000",
          "125712.390000",
          "125712.406000",
          "125712.406000",
          "125712.406000",
          "125712.406000",
          "125712.406000",
          "125712.406000",
          "125712.406000",
          "125712.421000",
          "125712.421000",
          "125712.421000",
          "125712.421000",
          "125752.375000",
          "125752.375000",
          "125752.375000",
          "125752.390000",
          "125752.390000",
          "125752.390000",
          "125752.390000",
          "125752.390000",
          "125752.390000",
          "125752.406000",
          "125752.406000",
          "125752.406000",
          "125752.406000",
          "125752.406000",
          "125752.421000",
          "125752.421000",
          "125752.421000",
          "125752.421000",
          "125752.421000",
          "125752.421000",
          "125832.375000",
          "125832.375000",
          "125832.375000",
          "125832.390000",
          "125832.390000",
          "125832.390000",
          "125832.390000",
          "125832.406000",
          "125832.406000",
          "125832.406000",
          "125832.406000",
          "125832.406000",
          "125832.406000",
          "125832.421000",
          "125832.421000",
          "125832.421000",
          "125832.421000",
          "125832.421000",
          "125832.421000",
          "125832.437000",
          "125912.375000",
          "125912.375000",
          "125912.375000",
          "125912.390000",
          "125912.390000",
          "125912.390000",
          "125912.390000",
          "125912.390000",
          "125912.406000",
          "125912.406000",
          "125912.406000",
          "125912.406000",
          "125912.406000",
          "125912.406000",
          "125912.406000",
          "125912.421000",
          "125912.421000",
          "125912.421000",
          "125912.421000",
          "125912.421000",
          "125952.375000",
          "125952.375000",
          "125952.375000",
          "125952.390000",
          "125952.390000",
          "125952.390000",
          "125952.390000",
          "125952.406000",
          "125952.406000",
          "125952.406000",
          "125952.406000",
          "125952.406000",
          "125952.406000",
          "125952.406000",
          "125952.406000",
          "125952.421000",
          "125952.421000",
          "125952.421000",
          "125952.421000",
          "125952.421000",
          "130032.375000",
          "130032.375000",
          "130032.375000",
          "130032.390000",
          "130032.390000",
          "130032.390000",
          "130032.390000",
          "130032.390000",
          "130032.390000",
          "130032.390000",
          "130032.406000",
          "130032.406000",
          "130032.406000",
          "130032.406000",
          "130032.406000",
