{
  "aor": 0.001040418410041841,
  "aqi": 0.019071965271966525,
  "bids_meta": {
    "AcquisitionMatrixPE": 68,
    "AcquisitionNumber": 1,
    "AcquisitionTime": "12:05:31.005000",
    "BandwidthPerPixelPhaseEncode": 31.289,
    "BaseResolution": 68,
    "CogAtlasID": "TODO",
    "CoilString": "C:HEA;HEP",
    "ConversionSoftware": "dcm2niix",
    "ConversionSoftwareVersion": "v1.0.20190902",
    "DerivedVendorReportedEchoSpacing": 0.000470002,
    "DeviceSerialNumber": "35450",
    "DwellTime": 3e-06,
    "EchoTime": 0.023,
    "EffectiveEchoSpacing": 0.000470002,
    "FlipAngle": 76,
    "ImageOrientationPatientDICOM": [
      0.999816,
      0.00103812,
      0.0191694,
      5.21597e-08,
      0.998537,
      -0.0540788
    ],
    "ImageType": [
      "ORIGINAL",
      "PRIMARY",
      "M",
      "ND",
      "MOSAIC"
    ],
    "ImagingFrequency": 123.219,
    "InPlanePhaseEncodingDirectionDICOM": "COL",
    "InstitutionAddress": "Univeristy_Ave._197_Newark_North_East_US_07102-1814",
    "InstitutionName": "RUBIC",
    "InstitutionalDepartmentName": "Department",
    "MRAcquisitionType": "2D",
    "MagneticFieldStrength": 3,
    "Manufacturer": "Siemens",
    "ManufacturersModelName": "TrioTim",
    "Modality": "MR",
    "PartialFourier": 1,
    "PatientPosition": "HFS",
    "PercentPhaseFOV": 100,
    "PhaseEncodingDirection": "j-",
    "PhaseEncodingSteps": 68,
    "PhaseResolution": 1,
    "PixelBandwidth": 2451,
    "ProcedureStepDescription": "Krekelberg_David",
    "ProtocolName": "ep2d_bold_RestEPI_1",
    "PulseSequenceDetails": "%SiemensSeq%_ep2d_bold",
    "ReceiveCoilName": "HeadMatrix",
    "ReconMatrixPE": 68,
    "RepetitionTime": 2,
    "SAR": 0.163937,
    "ScanOptions": "FS",
    "ScanningSequence": "EP",
    "SequenceName": "_epfid2d1_68",
    "SequenceVariant": "SK",
    "SeriesDescription": "ep2d_bold_RestEPI_1",
    "SeriesNumber": 7,
    "ShimSetting": [
      2008,
      -516,
      -7874,
      641,
      420,
      761,
      -177,
      -18
    ],
    "SliceThickness": 2.5,
    "SliceTiming": [
      1.9525,
      1.8975,
      1.84,
      1.785,
      1.73,
      1.6725,
      1.6175,
      1.5625,
      1.5075,
      1.45,
      1.395,
      1.34,
      1.2825,
      1.2275,
      1.1725,
      1.115,
      1.06,
      1.005,
      0.95,
      0.8925,
      0.8375,
      0.7825,
      0.725,
      0.67,
      0.615,
      0.5575,
      0.5025,
      0.4475,
      0.39,
      0.335,
      0.28,
      0.225,
      0.1675,
      0.1125,
      0.0575,
      0
    ],
    "SoftwareVersions": "syngo_MR_B19",
    "SpacingBetweenSlices": 3,
    "StationName": "MRC35450",
    "TaskName": "rest",
    "TotalReadoutTime": 0.0314901,
    "TxRefAmp": 349.196,
    "dataset": "<unset>",
    "dcmmeta_affine": [
      [
        -2.9994471073150635,
        1.564792029284945e-07,
        0.05759232118725777,
        101.65129852294922
      ],
      [
        -0.0031143680680543184,
        2.995609998703003,
        -0.16220654547214508,
        -80.99466705322266
      ],
      [
        0.05750805139541626,
        0.16223643720149994,
        2.995058059692383,
        -29.214096069335938
      ],
      [
        0.0,
        0.0,
        0.0,
        1.0
      ]
    ],
    "dcmmeta_reorient_transform": [
      [
        0.0,
        -1.0,
        0.0,
        67.0
      ],
      [
        1.0,
        0.0,
        0.0,
        0.0
      ],
      [
        0.0,
        0.0,
        1.0,
        0.0
      ],
      [
        0.0,
        0.0,
        0.0,
        1.0
      ]
    ],
    "dcmmeta_shape": [
      68,
      68,
      36,
      240
    ],
    "dcmmeta_slice_dim": 2,
    "dcmmeta_version": 0.6,
    "global": {
      "const": {
        "AcquisitionMatrix": [
          68,
          0,
          0,
          68
        ],
        "AngioFlag": "N",
        "BitsAllocated": 16,
        "BitsStored": 12,
        "Columns": 408,
        "EchoNumbers": 1,
        "EchoTime": 23.0,
        "EchoTrainLength": 1,
        "FlipAngle": 76.0,
        "HighBit": 11,
        "ImageOrientationPatient": [
          0.9998157121633,
          0.00103812269699,
          0.01916935086707,
          5.2159735e-08,
          0.99853667035216,
          -0.0540788125056
        ],
        "ImagePositionPatient": [
          -611.55734815661,
          -629.4943471681,
          -0.5404292373454
        ],
        "ImageType": [
          "ORIGINAL",
          "PRIMARY",
          "M",
          "ND",
          "MOSAIC"
        ],
        "ImagedNucleus": "1H",
        "ImagingFrequency": 123.218653,
        "InPlanePhaseEncodingDirection": "COL",
        "MRAcquisitionType": "2D",
        "MagneticFieldStrength": 3.0,
        "Manufacturer": "SIEMENS",
        "ManufacturerModelName": "TrioTim",
        "Modality": "MR",
        "NumberOfAverages": 1.0,
        "NumberOfPhaseEncodingSteps": 68,
        "PercentPhaseFieldOfView": 100.0,
        "PercentSampling": 100.0,
        "PerformedProcedureStepStartTime": "113416.406000",
        "PhotometricInterpretation": "MONOCHROME2",
        "PixelBandwidth": 2451.0,
        "PixelRepresentation": 0,
        "PixelSpacing": [
          3.0,
          3.0
        ],
        "ProtocolName": "ep2d_bold_RestEPI_1",
        "RepetitionTime": 2000.0,
        "Rows": 408,
        "SAR": 0.1639368425775,
        "SamplesPerPixel": 1,
        "ScanOptions": "FS",
        "ScanningSequence": "EP",
        "SequenceName": "*epfid2d1_68",
        "SequenceVariant": "SK",
        "SeriesDescription": "ep2d_bold_RestEPI_1",
        "SeriesNumber": 7,
        "SeriesTime": "120611.718000",
        "SliceLocation": -22.83523714394,
        "SliceThickness": 2.5,
        "SmallestImagePixelValue": 0,
        "SoftwareVersions": "syngo MR B19",
        "SpacingBetweenSlices": 3.0000001046662,
        "SpecificCharacterSet": "ISO_IR 100",
        "StudyID": "1",
        "StudyTime": "113416.359000",
        "TransmitCoilName": "Body",
        "VariableFlipAngleFlag": "N",
        "WindowCenterWidthExplanation": "Algo1",
        "dBdt": 0.0
      },
      "slices": {}
    },
    "modality": "bold",
    "run_id": 1,
    "subject_id": "238",
    "task_id": "rest",
    "time": {
      "samples": {
        "AcquisitionNumber": [
          1,
          2,
          3,
          4,
          5,
          6,
          7,
          8,
          9,
          10,
          11,
          12,
          13,
          14,
          15,
          16,
          17,
          18,
          19,
          20,
          21,
          22,
          23,
          24,
          25,
          26,
          27,
          28,
          29,
          30,
          31,
          32,
          33,
          34,
          35,
          36,
          37,
          38,
          39,
          40,
          41,
          42,
          43,
          44,
          45,
          46,
          47,
          48,
          49,
          50,
          51,
          52,
          53,
          54,
          55,
          56,
          57,
          58,
          59,
          60,
          61,
          62,
          63,
          64,
          65,
          66,
          67,
          68,
          69,
          70,
          71,
          72,
          73,
          74,
          75,
          76,
          77,
          78,
          79,
          80,
          81,
          82,
          83,
          84,
          85,
          86,
          87,
          88,
          89,
          90,
          91,
          92,
          93,
          94,
          95,
          96,
          97,
          98,
          99,
          100,
          101,
          102,
          103,
          104,
          105,
          106,
          107,
          108,
          109,
          110,
          111,
          112,
          113,
          114,
          115,
          116,
          117,
          118,
          119,
          120,
          121,
          122,
          123,
          124,
          125,
          126,
          127,
          128,
          129,
          130,
          131,
          132,
          133,
          134,
          135,
          136,
          137,
          138,
          139,
          140,
          141,
          142,
          143,
          144,
          145,
          146,
          147,
          148,
          149,
          150,
          151,
          152,
          153,
          154,
          155,
          156,
          157,
          158,
          159,
          160,
          161,
          162,
          163,
          164,
          165,
          166,
          167,
          168,
          169,
          170,
          171,
          172,
          173,
          174,
          175,
          176,
          177,
          178,
          179,
          180,
          181,
          182,
          183,
          184,
          185,
          186,
          187,
          188,
          189,
          190,
          191,
          192,
          193,
          194,
          195,
          196,
          197,
          198,
          199,
          200,
          201,
          202,
          203,
          204,
          205,
          206,
          207,
          208,
          209,
          210,
          211,
          212,
          213,
          214,
          215,
          216,
          217,
          218,
          219,
          220,
          221,
          222,
          223,
          224,
          225,
          226,
          227,
          228,
          229,
          230,
          231,
          232,
          233,
          234,
          235,
          236,
          237,
          238,
          239,
          240
        ],
        "AcquisitionTime": [
          "120531.005000",
          "120533.012500",
          "120535.020000",
          "120537.030000",
          "120539.037500",
          "120541.045000",
          "120543.052500",
          "120545.062500",
          "120547.070000",
          "120549.077500",
          "120551.085000",
          "120553.092500",
          "120555.102500",
          "120557.110000",
          "120559.117500",
          "120601.125000",
          "120603.132500",
          "120605.142500",
          "120607.150000",
          "120609.157500",
          "120611.165000",
          "120613.172500",
          "120615.182500",
          "120617.190000",
          "120619.197500",
          "120621.205000",
          "120623.215000",
          "120625.222500",
          "120627.230000",
          "120629.237500",
          "120631.245000",
          "120633.255000",
          "120635.262500",
          "120637.270000",
          "120639.277500",
          "120641.285000",
          "120643.295000",
          "120645.302500",
          "120647.310000",
          "120649.317500",
          "120651.327500",
          "120653.335000",
          "120655.342500",
          "120657.350000",
          "120659.357500",
          "120701.367500",
          "120703.375000",
          "120705.382500",
          "120707.390000",
          "120709.397500",
          "120711.407500",
          "120713.415000",
          "120715.422500",
          "120717.430000",
          "120719.440000",
          "120721.447500",
          "120723.455000",
          "120725.462500",
          "120727.470000",
          "120729.480000",
          "120731.487500",
          "120733.495000",
          "120735.502500",
          "120737.510000",
          "120739.520000",
          "120741.527500",
          "120743.535000",
          "120745.542500",
          "120747.550000",
          "120749.560000",
          "120751.567500",
          "120753.575000",
          "120755.582500",
          "120757.592500",
          "120759.600000",
          "120801.607500",
          "120803.615000",
          "120805.622500",
          "120807.632500",
          "120809.640000",
          "120811.647500",
          "120813.655000",
          "120815.662500",
          "120817.672500",
          "120819.680000",
          "120821.687500",
          "120823.695000",
          "120825.705000",
          "120827.712500",
          "120829.720000",
          "120831.727500",
          "120833.735000",
          "120835.745000",
          "120837.752500",
          "120839.760000",
          "120841.767500",
          "120843.775000",
          "120845.785000",
          "120847.792500",
          "120849.800000",
          "120851.807500",
          "120853.817500",
          "120855.825000",
          "120857.832500",
          "120859.840000",
          "120901.847500",
          "120903.857500",
          "120905.865000",
          "120907.872500",
          "120909.880000",
          "120911.887500",
          "120913.897500",
          "120915.905000",
          "120917.912500",
          "120919.920000",
          "120921.930000",
          "120923.937500",
          "120925.945000",
          "120927.952500",
          "120929.960000",
          "120931.970000",
          "120933.977500",
          "120935.985000",
          "120937.992500",
          "120940.000000",
          "120942.010000",
          "120944.017500",
          "120946.025000",
          "120948.032500",
          "120950.040000",
          "120952.050000",
          "120954.057500",
          "120956.065000",
          "120958.072500",
          "121000.082500",
          "121002.090000",
          "121004.097500",
          "121006.105000",
          "121008.112500",
          "121010.122500",
          "121012.130000",
          "121014.137500",
          "121016.145000",
          "121018.152500",
          "121020.162500",
          "121022.170000",
          "121024.177500",
          "121026.185000",
          "121028.195000",
          "121030.202500",
          "121032.210000",
          "121034.217500",
          "121036.225000",
          "121038.235000",
          "121040.242500",
          "121042.250000",
          "121044.257500",
          "121046.265000",
          "121048.275000",
          "121050.282500",
          "121052.290000",
          "121054.297500",
          "121056.307500",
          "121058.315000",
          "121100.322500",
          "121102.330000",
          "121104.337500",
          "121106.347500",
          "121108.355000",
          "121110.362500",
          "121112.370000",
          "121114.377500",
          "121116.387500",
          "121118.395000",
          "121120.402500",
          "121122.410000",
          "121124.417500",
          "121126.427500",
          "121128.435000",
          "121130.442500",
          "121132.450000",
          "121134.460000",
          "121136.467500",
          "121138.475000",
          "121140.482500",
          "121142.490000",
          "121144.500000",
          "121146.507500",
          "121148.515000",
          "121150.522500",
          "121152.530000",
          "121154.540000",
          "121156.547500",
          "121158.555000",
          "121200.562500",
          "121202.572500",
          "121204.580000",
          "121206.587500",
          "121208.595000",
          "121210.602500",
          "121212.612500",
          "121214.620000",
          "121216.627500",
          "121218.635000",
          "121220.642500",
          "121222.652500",
          "121224.660000",
          "121226.667500",
          "121228.675000",
          "121230.685000",
          "121232.692500",
          "121234.700000",
          "121236.707500",
          "121238.715000",
          "121240.725000",
          "121242.732500",
          "121244.740000",
          "121246.747500",
          "121248.755000",
          "121250.765000",
          "121252.772500",
          "121254.780000",
          "121256.787500",
          "121258.795000",
          "121300.805000",
          "121302.812500",
          "121304.820000",
          "121306.827500",
          "121308.837500",
          "121310.845000",
          "121312.852500",
          "121314.860000",
          "121316.867500",
          "121318.877500",
          "121320.885000",
          "121322.892500",
          "121324.900000",
          "121326.907500",
          "121328.917500",
          "121330.925000"
        ],
        "ContentTime": [
          "120611.718000",
          "120611.734000",
          "120611.734000",
          "120611.734000",
          "120611.734000",
          "120611.750000",
          "120611.750000",
          "120611.750000",
          "120611.750000",
          "120611.750000",
          "120611.750000",
          "120611.750000",
          "120611.750000",
          "120611.765000",
          "120611.765000",
          "120611.765000",
          "120611.765000",
          "120611.765000",
          "120611.765000",
          "120611.765000",
          "120651.718000",
          "120651.718000",
          "120651.734000",
          "120651.734000",
          "120651.734000",
          "120651.734000",
          "120651.734000",
          "120651.734000",
          "120651.734000",
          "120651.734000",
          "120651.750000",
          "120651.750000",
          "120651.750000",
          "120651.750000",
          "120651.750000",
          "120651.750000",
          "120651.750000",
          "120651.765000",
          "120651.765000",
          "120651.765000",
          "120731.718000",
          "120731.718000",
          "120731.718000",
          "120731.734000",
          "120731.734000",
          "120731.734000",
          "120731.734000",
          "120731.734000",
          "120731.734000",
          "120731.734000",
          "120731.750000",
          "120731.750000",
          "120731.750000",
          "120731.750000",
          "120731.750000",
          "120731.750000",
          "120731.750000",
          "120731.765000",
          "120731.765000",
          "120731.765000",
          "120811.718000",
          "120811.718000",
          "120811.734000",
          "120811.734000",
          "120811.734000",
          "120811.734000",
          "120811.734000",
          "120811.734000",
          "120811.734000",
          "120811.734000",
          "120811.750000",
          "120811.750000",
          "120811.750000",
          "120811.750000",
          "120811.750000",
          "120811.750000",
          "120811.765000",
          "120811.765000",
          "120811.765000",
          "120811.765000",
          "120851.718000",
          "120851.718000",
          "120851.718000",
          "120851.734000",
          "120851.734000",
          "120851.734000",
          "120851.734000",
          "120851.734000",
          "120851.734000",
          "120851.734000",
          "120851.750000",
          "120851.750000",
          "120851.750000",
          "120851.750000",
          "120851.750000",
          "120851.750000",
          "120851.765000",
          "120851.765000",
          "120851.765000",
          "120851.765000",
          "120931.718000",
          "120931.718000",
          "120931.718000",
          "120931.734000",
          "120931.734000",
          "120931.734000",
          "120931.734000",
          "120931.734000",
          "120931.734000",
          "120931.734000",
          "120931.750000",
          "120931.750000",
          "120931.750000",
          "120931.750000",
          "120931.750000",
          "120931.750000",
          "120931.750000",
          "120931.765000",
          "120931.765000",
          "120931.765000",
          "121011.718000",
          "121011.718000",
          "121011.718000",
          "121011.734000",
          "121011.734000",
          "121011.734000",
          "121011.734000",
          "121011.734000",
          "121011.734000",
          "121011.734000",
          "121011.750000",
          "121011.750000",
          "121011.750000",
          "121011.750000",
          "121011.750000",
          "121011.750000",
          "121011.750000",
          "121011.765000",
          "121011.765000",
          "121011.765000",
          "121051.718000",
          "121051.718000",
          "121051.718000",
          "121051.734000",
          "121051.734000",
          "121051.734000",
          "121051.734000",
          "121051.734000",
          "121051.734000",
          "121051.734000",
          "121051.750000",
          "121051.750000",
          "121051.750000",
          "121051.750000",
          "121051.750000",
          "121051.750000",
          "121051.750000",
          "121051.750000",
          "121051.765000",
          "121051.765000",
          "121131.718000",
          "121131.718000",
          "121131.734000",
          "121131.734000",
          "121131.734000",
          "121131.734000",
          "121131.734000",
          "121131.734000",
          "121131.734000",
          "121131.734000",
          "121131.750000",
          "121131.750000",
          "121131.750000",
          "121131.750000",
          "121131.750000",
          "121131.750000",
          "121131.750000",
          "121131.765000",
          "121131.765000",
          "121131.765000",
          "121211.718000",
          "121211.718000",
          "121211.734000",
          "121211.734000",
          "121211.734000",
          "121211.734000",
          "121211.734000",
          "121211.734000",
          "121211.734000",
          "121211.734000",
          "121211.750000",
          "121211.750000",
          "121211.750000",
          "121211.750000",
          "121211.750000",
          "121211.750000",
          "121211.750000",
          "121211.765000",
          "121211.765000",
          "121211.765000",
          "121251.718000",
          "121251.718000",
          "121251.718000",
          "121251.734000",
          "121251.734000",
          "121251.734000",
          "121251.734000",
          "121251.734000",
          "121251.734000",
          "121251.734000",
          "121251.750000",
          "121251.750000",
          "121251.750000",
          "121251.750000",
          "121251.750000",
          "121251.750000",
          "121251.750000",
          "121251.750000",
          "121251.765000",
          "121251.765000",
          "121330.218000",
          "121330.218000",
          "121330.218000",
          "121330.234000",
          "121330.234000",
          "121330.234000",
          "121330.234000",
          "121330.234000",
          "121330.234000",
          "121330.234000",
          "121330.250000",
          "121330.250000",
          "121330.250000",
          "121330.250000",
          "121330.250000",
          "121330.250000",
          "121330.250000",
          "121330.265000",
          "121330.265000",
          "121330.265000"
        ],
        "InstanceCreationTime": [
          "120611.718000",
          "120611.734000",
          "120611.734000",
          "120611.734000",
          "120611.734000",
          "120611.750000",
          "120611.750000",
          "120611.750000",
          "120611.750000",
          "120611.750000",
          "120611.750000",
          "120611.750000",
          "120611.750000",
          "120611.765000",
          "120611.765000",
          "120611.765000",
          "120611.765000",
          "120611.765000",
          "120611.765000",
          "120611.765000",
          "120651.718000",
          "120651.718000",
          "120651.734000",
          "120651.734000",
          "120651.734000",
          "120651.734000",
          "120651.734000",
          "120651.734000",
          "120651.734000",
          "120651.734000",
          "120651.750000",
          "120651.750000",
          "120651.750000",
          "120651.750000",
          "120651.750000",
          "120651.750000",
          "120651.750000",
          "120651.765000",
          "120651.765000",
          "120651.765000",
          "120731.718000",
          "120731.718000",
          "120731.718000",
          "120731.734000",
          "120731.734000",
          "120731.734000",
          "120731.734000",
          "120731.734000",
          "120731.734000",
          "120731.734000",
          "120731.750000",
          "120731.750000",
          "120731.750000",
          "120731.750000",
          "120731.750000",
          "120731.750000",
          "120731.750000",
          "120731.765000",
          "120731.765000",
          "120731.765000",
          "120811.718000",
          "120811.718000",
          "120811.734000",
          "120811.734000",
          "120811.734000",
          "120811.734000",
          "120811.734000",
          "120811.734000",
          "120811.734000",
          "120811.734000",
          "120811.750000",
          "120811.750000",
          "120811.750000",
          "120811.750000",
          "120811.750000",
          "120811.750000",
          "120811.765000",
          "120811.765000",
          "120811.765000",
          "120811.765000",
          "120851.718000",
          "120851.718000",
          "120851.718000",
          "120851.734000",
          "120851.734000",
          "120851.734000",
          "120851.734000",
          "120851.734000",
          "120851.734000",
          "120851.734000",
          "120851.750000",
          "120851.750000",
          "120851.750000",
          "120851.750000",
          "120851.750000",
          "120851.750000",
          "120851.765000",
          "120851.765000",
          "120851.765000",
          "120851.765000",
          "120931.718000",
          "120931.718000",
          "120931.718000",
          "120931.734000",
          "120931.734000",
          "120931.734000",
          "120931.734000",
          "120931.734000",
          "120931.734000",
          "120931.734000",
          "120931.750000",
          "120931.750000",
          "120931.750000",
          "120931.750000",
          "120931.750000",
          "120931.750000",
          "120931.750000",
          "120931.765000",
          "120931.765000",
          "120931.765000",
          "121011.718000",
          "121011.718000",
          "121011.718000",
          "121011.734000",
          "121011.734000",
          "121011.734000",
          "121011.734000",
          "121011.734000",
          "121011.734000",
          "121011.734000",
          "121011.750000",
          "121011.750000",
          "121011.750000",
          "121011.750000",
          "121011.750000",
          "121011.750000",
          "121011.750000",
          "121011.765000",
          "121011.765000",
          "121011.765000",
          "121051.718000",
          "121051.718000",
          "121051.718000",
          "121051.734000",
          "121051.734000",
          "121051.734000",
          "121051.734000",
          "121051.734000",
          "121051.734000",
          "121051.734000",
          "121051.750000",
          "121051.750000",
          "121051.750000",
          "121051.750000",
          "121051.750000",
          "121051.750000",
          "121051.750000",
          "121051.750000",
          "121051.765000",
          "121051.765000",
          "121131.718000",
          "121131.718000",
          "121131.734000",
          "121131.734000",
          "121131.734000",
          "121131.734000",
          "121131.734000",
          "121131.734000",
          "121131.734000",
          "121131.734000",
          "121131.750000",
          "121131.750000",
          "121131.750000",
          "121131.750000",
          "121131.750000",
          "121131.750000",
          "121131.750000",
          "121131.765000",
          "121131.765000",
          "121131.765000",
          "121211.718000",
          "121211.718000",
          "121211.734000",
          "121211.734000",
          "121211.734000",
          "121211.734000",
          "121211.734000",
          "121211.734000",
          "121211.734000",
          "121211.734000",
          "121211.750000",
          "121211.750000",
          "121211.750000",
          "121211.750000",
          "121211.750000",
          "121211.750000",
          "121211.750000",
          "121211.765000",
          "121211.765000",
          "121211.765000",
          "121251.718000",
          "121251.718000",
          "121251.718000",
          "121251.734000",
          "121251.734000",
          "121251.734000",
          "121251.734000",
          "121251.734000",
          "121251.734000",
          "121251.734000",
          "121251.750000",
          "121251.750000",
          "121251.750000",
          "121251.750000",
          "121251.750000",
          "121251.750000",
          "121251.750000",
          "121251.750000",
          "121251.765000",
          "121251.765000",
          "121330.218000",
          "121330.218000",
          "121330.218000",
          "121330.234000",
          "121330.234000",
          "121330.234000",
          "121330.234000",
          "121330.234000",
          "121330.234000",
          "121330.234000",
          "121330.250000",
          "121330.250000",
          "121330.250000",
          "121330.250000",
          "121330.250000",
          "121330.250000",
          "121330.250000",
          "121330.265000",
          "121330.265000",
          "121330.265000"
        ],
        "InstanceNumber": [
          1,
          2,
          3,
          4,
          5,
          6,
          7,
          8,
          9,
          10,
          11,
          12,
          13,
          14,
          15,
          16,
          17,
          18,
          19,
          20,
          21,
          22,
          23,
          24,
          25,
          26,
          27,
          28,
          29,
          30,
          31,
          32,
          33,
          34,
          35,
          36,
          37,
          38,
          39,
          40,
          41,
          42,
          43,
          44,
          45,
          46,
