{
  "aor": 0.0005896124031007752,
  "aqi": 0.02132462751937984,
  "bids_meta": {
    "AcquisitionMatrixPE": 68,
    "AcquisitionNumber": 1,
    "AcquisitionTime": "11:55:39.320000",
    "BandwidthPerPixelPhaseEncode": 31.289,
    "BaseResolution": 68,
    "CogAtlasID": "TODO",
    "CoilString": "C:HEA;HEP",
    "ConversionSoftware": "dcm2niix",
    "ConversionSoftwareVersion": "v1.0.20190902",
    "DerivedVendorReportedEchoSpacing": 0.000470002,
    "DeviceSerialNumber": "35450",
    "DwellTime": 3e-06,
    "EchoTime": 0.023,
    "EffectiveEchoSpacing": 0.000470002,
    "FlipAngle": 76,
    "ImageOrientationPatientDICOM": [
      0.999816,
      0.00103812,
      0.0191694,
      5.21597e-08,
      0.998537,
      -0.0540788
    ],
    "ImageType": [
      "ORIGINAL",
      "PRIMARY",
      "M",
      "ND",
      "MOSAIC"
    ],
    "ImagingFrequency": 123.219,
    "InPlanePhaseEncodingDirectionDICOM": "COL",
    "InstitutionAddress": "Univeristy_Ave._197_Newark_North_East_US_07102-1814",
    "InstitutionName": "RUBIC",
    "InstitutionalDepartmentName": "Department",
    "MRAcquisitionType": "2D",
    "MagneticFieldStrength": 3,
    "Manufacturer": "Siemens",
    "ManufacturersModelName": "TrioTim",
    "Modality": "MR",
    "PartialFourier": 1,
    "PatientPosition": "HFS",
    "PercentPhaseFOV": 100,
    "PhaseEncodingDirection": "j-",
    "PhaseEncodingSteps": 68,
    "PhaseResolution": 1,
    "PixelBandwidth": 2451,
    "ProcedureStepDescription": "Krekelberg_David",
    "ProtocolName": "ep2d_bold_CardGameEPI_1",
    "PulseSequenceDetails": "%SiemensSeq%_ep2d_bold",
    "ReceiveCoilName": "HeadMatrix",
    "ReconMatrixPE": 68,
    "RepetitionTime": 2,
    "SAR": 0.163972,
    "ScanOptions": "FS",
    "ScanningSequence": "EP",
    "SequenceName": "_epfid2d1_68",
    "SequenceVariant": "SK",
    "SeriesDescription": "ep2d_bold_CardGameEPI_1",
    "SeriesNumber": 6,
    "ShimSetting": [
      2008,
      -516,
      -7874,
      641,
      420,
      761,
      -177,
      -18
    ],
    "SliceThickness": 2.5,
    "SliceTiming": [
      1.9525,
      1.895,
      1.84,
      1.785,
      1.7275,
      1.6725,
      1.6175,
      1.56,
      1.505,
      1.45,
      1.395,
      1.3375,
      1.2825,
      1.2275,
      1.17,
      1.115,
      1.06,
      1.0025,
      0.9475,
      0.8925,
      0.835,
      0.78,
      0.725,
      0.67,
      0.6125,
      0.5575,
      0.5025,
      0.445,
      0.39,
      0.335,
      0.2775,
      0.2225,
      0.1675,
      0.11,
      0.055,
      0
    ],
    "SoftwareVersions": "syngo_MR_B19",
    "SpacingBetweenSlices": 3,
    "StationName": "MRC35450",
    "TaskName": "cardgame",
    "TotalReadoutTime": 0.0314901,
    "TxRefAmp": 349.196,
    "dataset": "<unset>",
    "dcmmeta_affine": [
      [
        -2.9994471073150635,
        1.564792029284945e-07,
        0.05759232118725777,
        101.65129852294922
      ],
      [
        -0.0031143680680543184,
        2.995609998703003,
        -0.16220654547214508,
        -80.99466705322266
      ],
      [
        0.05750805139541626,
        0.16223643720149994,
        2.995058059692383,
        -29.214096069335938
      ],
      [
        0.0,
        0.0,
        0.0,
        1.0
      ]
    ],
    "dcmmeta_reorient_transform": [
      [
        0.0,
        -1.0,
        0.0,
        67.0
      ],
      [
        1.0,
        0.0,
        0.0,
        0.0
      ],
      [
        0.0,
        0.0,
        1.0,
        0.0
      ],
      [
        0.0,
        0.0,
        0.0,
        1.0
      ]
    ],
    "dcmmeta_shape": [
      68,
      68,
      36,
      258
    ],
    "dcmmeta_slice_dim": 2,
    "dcmmeta_version": 0.6,
    "global": {
      "const": {
        "AcquisitionMatrix": [
          68,
          0,
          0,
          68
        ],
        "AngioFlag": "N",
        "BitsAllocated": 16,
        "BitsStored": 12,
        "Columns": 408,
        "EchoNumbers": 1,
        "EchoTime": 23.0,
        "EchoTrainLength": 1,
        "FlipAngle": 76.0,
        "HighBit": 11,
        "ImageOrientationPatient": [
          0.9998157121633,
          0.00103812269699,
          0.01916935086707,
          5.2159735e-08,
          0.99853667035216,
          -0.0540788125056
        ],
        "ImagePositionPatient": [
          -611.55734815661,
          -629.4943471681,
          -0.5404292373454
        ],
        "ImageType": [
          "ORIGINAL",
          "PRIMARY",
          "M",
          "ND",
          "MOSAIC"
        ],
        "ImagedNucleus": "1H",
        "ImagingFrequency": 123.218631,
        "InPlanePhaseEncodingDirection": "COL",
        "MRAcquisitionType": "2D",
        "MagneticFieldStrength": 3.0,
        "Manufacturer": "SIEMENS",
        "ManufacturerModelName": "TrioTim",
        "Modality": "MR",
        "NumberOfAverages": 1.0,
        "NumberOfPhaseEncodingSteps": 68,
        "PercentPhaseFieldOfView": 100.0,
        "PercentSampling": 100.0,
        "PerformedProcedureStepStartTime": "113416.406000",
        "PhotometricInterpretation": "MONOCHROME2",
        "PixelBandwidth": 2451.0,
        "PixelRepresentation": 0,
        "PixelSpacing": [
          3.0,
          3.0
        ],
        "ProtocolName": "ep2d_bold_CardGameEPI_1",
        "RepetitionTime": 2000.0,
        "Rows": 408,
        "SAR": 0.1639719153947,
        "SamplesPerPixel": 1,
        "ScanOptions": "FS",
        "ScanningSequence": "EP",
        "SequenceName": "*epfid2d1_68",
        "SequenceVariant": "SK",
        "SeriesDescription": "ep2d_bold_CardGameEPI_1",
        "SeriesNumber": 6,
        "SeriesTime": "115632.375000",
        "SliceLocation": -22.83523714394,
        "SliceThickness": 2.5,
        "SmallestImagePixelValue": 0,
        "SoftwareVersions": "syngo MR B19",
        "SpacingBetweenSlices": 3.0000001046662,
        "SpecificCharacterSet": "ISO_IR 100",
        "StudyID": "1",
        "StudyTime": "113416.359000",
        "TransmitCoilName": "Body",
        "VariableFlipAngleFlag": "N",
        "WindowCenterWidthExplanation": "Algo1",
        "dBdt": 0.0
      },
      "slices": {}
    },
    "modality": "bold",
    "run_id": 1,
    "subject_id": "238",
    "task_id": "cardgame",
    "time": {
      "samples": {
        "AcquisitionNumber": [
          1,
          2,
          3,
          4,
          5,
          6,
          7,
          8,
          9,
          10,
          11,
          12,
          13,
          14,
          15,
          16,
          17,
          18,
          19,
          20,
          21,
          22,
          23,
          24,
          25,
          26,
          27,
          28,
          29,
          30,
          31,
          32,
          33,
          34,
          35,
          36,
          37,
          38,
          39,
          40,
          41,
          42,
          43,
          44,
          45,
          46,
          47,
          48,
          49,
          50,
          51,
          52,
          53,
          54,
          55,
          56,
          57,
          58,
          59,
          60,
          61,
          62,
          63,
          64,
          65,
          66,
          67,
          68,
          69,
          70,
          71,
          72,
          73,
          74,
          75,
          76,
          77,
          78,
          79,
          80,
          81,
          82,
          83,
          84,
          85,
          86,
          87,
          88,
          89,
          90,
          91,
          92,
          93,
          94,
          95,
          96,
          97,
          98,
          99,
          100,
          101,
          102,
          103,
          104,
          105,
          106,
          107,
          108,
          109,
          110,
          111,
          112,
          113,
          114,
          115,
          116,
          117,
          118,
          119,
          120,
          121,
          122,
          123,
          124,
          125,
          126,
          127,
          128,
          129,
          130,
          131,
          132,
          133,
          134,
          135,
          136,
          137,
          138,
          139,
          140,
          141,
          142,
          143,
          144,
          145,
          146,
          147,
          148,
          149,
          150,
          151,
          152,
          153,
          154,
          155,
          156,
          157,
          158,
          159,
          160,
          161,
          162,
          163,
          164,
          165,
          166,
          167,
          168,
          169,
          170,
          171,
          172,
          173,
          174,
          175,
          176,
          177,
          178,
          179,
          180,
          181,
          182,
          183,
          184,
          185,
          186,
          187,
          188,
          189,
          190,
          191,
          192,
          193,
          194,
          195,
          196,
          197,
          198,
          199,
          200,
          201,
          202,
          203,
          204,
          205,
          206,
          207,
          208,
          209,
          210,
          211,
          212,
          213,
          214,
          215,
          216,
          217,
          218,
          219,
          220,
          221,
          222,
          223,
          224,
          225,
          226,
          227,
          228,
          229,
          230,
          231,
          232,
          233,
          234,
          235,
          236,
          237,
          238,
          239,
          240,
          241,
          242,
          243,
          244,
          245,
          246,
          247,
          248,
          249,
          250,
          251,
          252,
          253,
          254,
          255,
          256,
          257,
          258
        ],
        "AcquisitionTime": [
          "115539.320000",
          "115541.327500",
          "115543.335000",
          "115545.342500",
          "115547.350000",
          "115549.360000",
          "115551.367500",
          "115553.375000",
          "115555.382500",
          "115557.390000",
          "115559.400000",
          "115601.407500",
          "115603.415000",
          "115605.422500",
          "115607.432500",
          "115609.440000",
          "115611.447500",
          "115613.455000",
          "115615.462500",
          "115617.472500",
          "115619.480000",
          "115621.487500",
          "115623.495000",
          "115625.502500",
          "115627.512500",
          "115629.520000",
          "115631.527500",
          "115633.535000",
          "115635.545000",
          "115637.552500",
          "115639.560000",
          "115641.567500",
          "115643.575000",
          "115645.585000",
          "115647.592500",
          "115649.600000",
          "115651.607500",
          "115653.615000",
          "115655.625000",
          "115657.632500",
          "115659.640000",
          "115701.647500",
          "115703.655000",
          "115705.665000",
          "115707.672500",
          "115709.680000",
          "115711.687500",
          "115713.697500",
          "115715.705000",
          "115717.712500",
          "115719.720000",
          "115721.727500",
          "115723.737500",
          "115725.745000",
          "115727.752500",
          "115729.760000",
          "115731.767500",
          "115733.777500",
          "115735.785000",
          "115737.792500",
          "115739.800000",
          "115741.810000",
          "115743.817500",
          "115745.825000",
          "115747.832500",
          "115749.840000",
          "115751.850000",
          "115753.857500",
          "115755.865000",
          "115757.872500",
          "115759.880000",
          "115801.890000",
          "115803.897500",
          "115805.905000",
          "115807.912500",
          "115809.922500",
          "115811.930000",
          "115813.937500",
          "115815.945000",
          "115817.952500",
          "115819.962500",
          "115821.970000",
          "115823.977500",
          "115825.985000",
          "115827.992500",
          "115830.002500",
          "115832.010000",
          "115834.017500",
          "115836.025000",
          "115838.035000",
          "115840.042500",
          "115842.050000",
          "115844.057500",
          "115846.065000",
          "115848.075000",
          "115850.082500",
          "115852.090000",
          "115854.097500",
          "115856.105000",
          "115858.115000",
          "115900.122500",
          "115902.130000",
          "115904.137500",
          "115906.145000",
          "115908.155000",
          "115910.162500",
          "115912.170000",
          "115914.177500",
          "115916.187500",
          "115918.195000",
          "115920.202500",
          "115922.210000",
          "115924.217500",
          "115926.227500",
          "115928.235000",
          "115930.242500",
          "115932.250000",
          "115934.257500",
          "115936.267500",
          "115938.275000",
          "115940.282500",
          "115942.290000",
          "115944.300000",
          "115946.307500",
          "115948.315000",
          "115950.322500",
          "115952.330000",
          "115954.340000",
          "115956.347500",
          "115958.355000",
          "120000.362500",
          "120002.370000",
          "120004.380000",
          "120006.387500",
          "120008.395000",
          "120010.402500",
          "120012.412500",
          "120014.420000",
          "120016.427500",
          "120018.435000",
          "120020.442500",
          "120022.452500",
          "120024.460000",
          "120026.467500",
          "120028.475000",
          "120030.482500",
          "120032.492500",
          "120034.500000",
          "120036.507500",
          "120038.515000",
          "120040.522500",
          "120042.532500",
          "120044.540000",
          "120046.547500",
          "120048.555000",
          "120050.565000",
          "120052.572500",
          "120054.580000",
          "120056.587500",
          "120058.595000",
          "120100.605000",
          "120102.612500",
          "120104.620000",
          "120106.627500",
          "120108.635000",
          "120110.645000",
          "120112.652500",
          "120114.660000",
          "120116.667500",
          "120118.677500",
          "120120.685000",
          "120122.692500",
          "120124.700000",
          "120126.707500",
          "120128.717500",
          "120130.725000",
          "120132.732500",
          "120134.740000",
          "120136.747500",
          "120138.757500",
          "120140.765000",
          "120142.772500",
          "120144.780000",
          "120146.790000",
          "120148.797500",
          "120150.805000",
          "120152.812500",
          "120154.820000",
          "120156.830000",
          "120158.837500",
          "120200.845000",
          "120202.852500",
          "120204.860000",
          "120206.870000",
          "120208.877500",
          "120210.885000",
          "120212.892500",
          "120214.900000",
          "120216.910000",
          "120218.917500",
          "120220.925000",
          "120222.932500",
          "120224.942500",
          "120226.950000",
          "120228.957500",
          "120230.965000",
          "120232.972500",
          "120234.982500",
          "120236.990000",
          "120238.997500",
          "120241.005000",
          "120243.012500",
          "120245.022500",
          "120247.030000",
          "120249.037500",
          "120251.045000",
          "120253.055000",
          "120255.062500",
          "120257.070000",
          "120259.077500",
          "120301.085000",
          "120303.095000",
          "120305.102500",
          "120307.110000",
          "120309.117500",
          "120311.125000",
          "120313.135000",
          "120315.142500",
          "120317.150000",
          "120319.157500",
          "120321.167500",
          "120323.175000",
          "120325.182500",
          "120327.190000",
          "120329.197500",
          "120331.207500",
          "120333.215000",
          "120335.222500",
          "120337.230000",
          "120339.237500",
          "120341.247500",
          "120343.255000",
          "120345.262500",
          "120347.270000",
          "120349.277500",
          "120351.287500",
          "120353.295000",
          "120355.302500",
          "120357.310000",
          "120359.320000",
          "120401.327500",
          "120403.335000",
          "120405.342500",
          "120407.350000",
          "120409.360000",
          "120411.367500",
          "120413.375000",
          "120415.382500"
        ],
        "ContentTime": [
          "115632.375000",
          "115632.390000",
          "115632.390000",
          "115632.390000",
          "115632.390000",
          "115632.390000",
          "115632.390000",
          "115632.390000",
          "115632.406000",
          "115632.406000",
          "115632.406000",
          "115632.406000",
          "115632.406000",
          "115632.406000",
          "115632.421000",
          "115632.421000",
          "115632.421000",
          "115632.421000",
          "115632.421000",
          "115632.421000",
          "115632.421000",
          "115632.437000",
          "115632.437000",
          "115632.437000",
          "115632.437000",
          "115632.437000",
          "115712.375000",
          "115712.375000",
          "115712.375000",
          "115712.390000",
          "115712.390000",
          "115712.390000",
          "115712.390000",
          "115712.390000",
          "115712.390000",
          "115712.390000",
          "115712.406000",
          "115712.406000",
          "115712.406000",
          "115712.406000",
          "115712.406000",
          "115712.406000",
          "115712.406000",
          "115712.406000",
          "115712.421000",
          "115712.421000",
          "115752.375000",
          "115752.375000",
          "115752.390000",
          "115752.390000",
          "115752.390000",
          "115752.390000",
          "115752.390000",
          "115752.406000",
          "115752.406000",
          "115752.406000",
          "115752.406000",
          "115752.406000",
          "115752.406000",
          "115752.406000",
          "115752.421000",
          "115752.421000",
          "115752.421000",
          "115752.421000",
          "115752.421000",
          "115752.421000",
          "115832.375000",
          "115832.375000",
          "115832.375000",
          "115832.390000",
          "115832.390000",
          "115832.390000",
          "115832.390000",
          "115832.390000",
          "115832.390000",
          "115832.406000",
          "115832.406000",
          "115832.406000",
          "115832.406000",
          "115832.406000",
          "115832.406000",
          "115832.406000",
          "115832.421000",
          "115832.421000",
          "115832.421000",
          "115832.421000",
          "115912.375000",
          "115912.375000",
          "115912.390000",
          "115912.390000",
          "115912.390000",
          "115912.390000",
          "115912.406000",
          "115912.406000",
          "115912.406000",
          "115912.406000",
          "115912.406000",
          "115912.406000",
          "115912.406000",
          "115912.421000",
          "115912.421000",
          "115912.421000",
          "115912.421000",
          "115912.421000",
          "115912.437000",
          "115912.437000",
          "115952.375000",
          "115952.390000",
          "115952.390000",
          "115952.390000",
          "115952.390000",
          "115952.390000",
          "115952.390000",
          "115952.390000",
          "115952.406000",
          "115952.406000",
          "115952.406000",
          "115952.406000",
          "115952.406000",
          "115952.406000",
          "115952.406000",
          "115952.406000",
          "115952.421000",
          "115952.421000",
          "115952.421000",
          "115952.421000",
          "120032.375000",
          "120032.375000",
          "120032.375000",
          "120032.390000",
          "120032.390000",
          "120032.390000",
          "120032.390000",
          "120032.390000",
          "120032.390000",
          "120032.390000",
          "120032.390000",
          "120032.406000",
          "120032.406000",
          "120032.406000",
          "120032.406000",
          "120032.406000",
          "120032.406000",
          "120032.406000",
          "120032.421000",
          "120032.421000",
          "120112.375000",
          "120112.375000",
          "120112.390000",
          "120112.390000",
          "120112.390000",
          "120112.390000",
          "120112.390000",
          "120112.406000",
          "120112.406000",
          "120112.406000",
          "120112.406000",
          "120112.406000",
          "120112.406000",
          "120112.406000",
          "120112.421000",
          "120112.421000",
          "120112.421000",
          "120112.421000",
          "120112.421000",
          "120112.421000",
          "120152.375000",
          "120152.375000",
          "120152.390000",
          "120152.390000",
          "120152.390000",
          "120152.390000",
          "120152.390000",
          "120152.406000",
          "120152.406000",
          "120152.406000",
          "120152.406000",
          "120152.406000",
          "120152.406000",
          "120152.406000",
          "120152.406000",
          "120152.421000",
          "120152.421000",
          "120152.421000",
          "120152.421000",
          "120152.421000",
          "120232.375000",
          "120232.375000",
          "120232.390000",
          "120232.390000",
          "120232.390000",
          "120232.390000",
          "120232.390000",
          "120232.406000",
          "120232.406000",
          "120232.406000",
          "120232.406000",
          "120232.406000",
          "120232.406000",
          "120232.406000",
          "120232.406000",
          "120232.421000",
          "120232.421000",
          "120232.421000",
          "120232.421000",
          "120232.421000",
          "120312.375000",
          "120312.375000",
          "120312.375000",
          "120312.390000",
          "120312.390000",
          "120312.390000",
          "120312.390000",
          "120312.390000",
          "120312.390000",
          "120312.390000",
          "120312.406000",
          "120312.406000",
          "120312.406000",
          "120312.406000",
          "120312.406000",
          "120312.406000",
          "120312.406000",
          "120312.406000",
          "120312.421000",
          "120312.421000",
          "120352.375000",
          "120352.375000",
          "120352.375000",
          "120352.390000",
          "120352.390000",
          "120352.390000",
          "120352.390000",
          "120352.390000",
          "120352.390000",
          "120352.390000",
          "120352.406000",
          "120352.406000",
          "120352.406000",
          "120352.406000",
          "120352.406000",
          "120352.406000",
          "120352.406000",
          "120352.406000",
          "120352.421000",
          "120352.421000",
          "120414.703000",
          "120414.703000",
          "120414.703000",
          "120414.703000",
          "120414.703000",
          "120414.703000",
          "120414.718000",
          "120414.718000",
          "120414.718000",
          "120414.718000",
          "120414.718000",
          "120414.718000"
        ],
        "InstanceCreationTime": [
          "115632.375000",
          "115632.390000",
          "115632.390000",
          "115632.390000",
          "115632.390000",
          "115632.390000",
          "115632.390000",
          "115632.390000",
          "115632.406000",
          "115632.406000",
          "115632.406000",
          "115632.406000",
          "115632.406000",
          "115632.406000",
          "115632.421000",
          "115632.421000",
          "115632.421000",
          "115632.421000",
          "115632.421000",
          "115632.421000",
          "115632.421000",
          "115632.437000",
          "115632.437000",
          "115632.437000",
          "115632.437000",
          "115632.437000",
          "115712.375000",
          "115712.375000",
          "115712.375000",
          "115712.390000",
          "115712.390000",
          "115712.390000",
          "115712.390000",
          "115712.390000",
          "115712.390000",
          "115712.390000",
          "115712.406000",
          "115712.406000",
          "115712.406000",
          "115712.406000",
          "115712.406000",
          "115712.406000",
          "115712.406000",
          "115712.406000",
          "115712.421000",
          "115712.421000",
          "115752.375000",
          "115752.375000",
          "115752.390000",
          "115752.390000",
          "115752.390000",
          "115752.390000",
          "115752.390000",
          "115752.406000",
          "115752.406000",
          "115752.406000",
          "115752.406000",
          "115752.406000",
          "115752.406000",
          "115752.406000",
          "115752.421000",
          "115752.421000",
          "115752.421000",
          "115752.421000",
          "115752.421000",
          "115752.421000",
          "115832.375000",
          "115832.375000",
          "115832.375000",
          "115832.390000",
          "115832.390000",
          "115832.390000",
          "115832.390000",
          "115832.390000",
          "115832.390000",
          "115832.406000",
          "115832.406000",
          "115832.406000",
          "115832.406000",
          "115832.406000",
          "115832.406000",
          "115832.406000",
          "115832.421000",
          "115832.421000",
          "115832.421000",
          "115832.421000",
          "115912.375000",
          "115912.375000",
          "115912.390000",
          "115912.390000",
          "115912.390000",
          "115912.390000",
          "115912.406000",
          "115912.406000",
          "115912.406000",
          "115912.406000",
          "115912.406000",
          "115912.406000",
          "115912.406000",
          "115912.421000",
          "115912.421000",
          "115912.421000",
          "115912.421000",
          "115912.421000",
          "115912.437000",
          "115912.437000",
          "115952.375000",
          "115952.390000",
          "115952.390000",
          "115952.390000",
          "115952.390000",
          "115952.390000",
          "115952.390000",
          "115952.390000",
          "115952.406000",
          "115952.406000",
          "115952.406000",
          "115952.406000",
          "115952.406000",
          "115952.406000",
          "115952.406000",
          "115952.406000",
          "115952.421000",
          "115952.421000",
          "115952.421000",
          "115952.421000",
          "120032.375000",
          "120032.375000",
          "120032.375000",
          "120032.390000",
          "120032.390000",
          "120032.390000",
          "120032.390000",
          "120032.390000",
          "120032.390000",
          "120032.390000",
          "120032.390000",
          "120032.406000",
          "120032.406000",
          "120032.406000",
          "120032.406000",
          "120032.406000",
          "120032.406000",
          "120032.406000",
          "120032.421000",
          "120032.421000",
          "120112.375000",
          "120112.375000",
          "120112.390000",
          "120112.390000",
          "120112.390000",
          "120112.390000",
          "120112.390000",
          "120112.406000",
          "120112.406000",
          "120112.406000",
          "120112.406000",
          "120112.406000",
          "120112.406000",
          "120112.406000",
          "120112.421000",
          "120112.421000",
          "120112.421000",
          "120112.421000",
          "120112.421000",
          "120112.421000",
          "120152.375000",
          "120152.375000",
          "120152.390000",
          "120152.390000",
          "120152.390000",
          "120152.390000",
          "120152.390000",
          "120152.406000",
          "120152.406000",
          "120152.406000",
          "120152.406000",
          "120152.406000",
          "120152.406000",
          "120152.406000",
          "120152.406000",
          "120152.421000",
          "120152.421000",
          "120152.421000",
          "120152.421000",
          "120152.421000",
          "120232.375000",
          "120232.375000",
          "120232.390000",
          "120232.390000",
          "120232.390000",
          "120232.390000",
          "120232.390000",
          "120232.406000",
          "120232.406000",
          "120232.406000",
          "120232.406000",
          "120232.406000",
          "120232.406000",
          "120232.406000",
          "120232.406000",
          "120232.421000",
          "120232.421000",
          "120232.421000",
          "120232.421000",
          "120232.421000",
          "120312.375000",
          "120312.375000",
          "120312.375000",
          "120312.390000",
          "120312.390000",
          "120312.390000",
          "120312.390000",
          "120312.390000",
          "120312.390000",
          "120312.390000",
          "120312.406000",
          "120312.406000",
