{
    "AcquisitionMatrixPE": 68, 
    "AcquisitionNumber": 1, 
    "AcquisitionTime": "10:33:5.580000", 
    "BaseResolution": 68, 
    "CoilString": "C:HEP", 
    "ConversionSoftware": "dcm2niix", 
    "ConversionSoftwareVersion": "v1.0.20190902", 
    "DeviceSerialNumber": "35450", 
    "DwellTime": 2.82e-05, 
    "EchoNumber": 2, 
    "EchoTime": 0.00765, 
    "EchoTime1": 0.00519, 
    "EchoTime2": 0.00765, 
    "FlipAngle": 60, 
    "ImageOrientationPatientDICOM": [
        0.999328, 
        0.0035122, 
        0.036475, 
        -5.88464e-08, 
        0.995396, 
        -0.0958458
    ], 
    "ImageType": [
        "ORIGINAL", 
        "PRIMARY", 
        "P", 
        "ND"
    ], 
    "ImagingFrequency": 123.218, 
    "InPlanePhaseEncodingDirectionDICOM": "COL", 
    "InstitutionAddress": "Univeristy_Ave._197_Newark_North_East_US_07102-1814", 
    "InstitutionName": "RUBIC", 
    "InstitutionalDepartmentName": "Department", 
    "IntendedFor": [
        "func/sub-221_task-rest_run-04_bold.nii.gz", 
        "func/sub-221_task-cardgame_run-03_bold.nii.gz", 
        "func/sub-221_task-rest_run-03_bold.nii.gz", 
        "func/sub-221_task-cardgame_run-01_bold.nii.gz", 
        "func/sub-221_task-rest_run-01_bold.nii.gz", 
        "func/sub-221_task-cardgame_run-02_bold.nii.gz", 
        "func/sub-221_task-rest_run-02_bold.nii.gz"
    ], 
    "MRAcquisitionType": "2D", 
    "MagneticFieldStrength": 3, 
    "Manufacturer": "Siemens", 
    "ManufacturersModelName": "TrioTim", 
    "Modality": "MR", 
    "PartialFourier": 1, 
    "PatientPosition": "HFS", 
    "PercentPhaseFOV": 100, 
    "PhaseEncodingDirection": "j-", 
    "PhaseEncodingSteps": 68, 
    "PhaseResolution": 1, 
    "PixelBandwidth": 261, 
    "ProcedureStepDescription": "Krekelberg_David", 
    "ProtocolName": "gre_field_mapping", 
    "PulseSequenceDetails": "%SiemensSeq%_gre_field_mapping", 
    "ReceiveCoilName": "HeadMatrix", 
    "ReconMatrixPE": 68, 
    "RepetitionTime": 0.402, 
    "SAR": 0.380886, 
    "ScanningSequence": "GR", 
    "SequenceName": "_fm2d2r", 
    "SequenceVariant": "SP", 
    "SeriesDescription": "gre_field_mapping", 
    "SeriesNumber": 4, 
    "ShimSetting": [
        2171, 
        -427, 
        -7491, 
        1852, 
        778, 
        663, 
        -1692, 
        -78
    ], 
    "SliceThickness": 2.5, 
    "SliceTiming": [
        0.20312, 
        0, 
        0.21875, 
        0.01562, 
        0.22656, 
        0.02344, 
        0.23438, 
        0.03125, 
        0.25, 
        0.04688, 
        0.25781, 
        0.05469, 
        0.27344, 
        0.07031, 
        0.28125, 
        0.07812, 
        0.28906, 
        0.09375, 
        0.30469, 
        0.10156, 
        0.3125, 
        0.11719, 
        0.32812, 
        0.125, 
        0.33594, 
        0.14062, 
        0.35156, 
        0.14844, 
        0.35938, 
        0.15625, 
        0.375, 
        0.17188, 
        0.38281, 
        0.17969, 
        0.39844, 
        0.19531
    ], 
    "SoftwareVersions": "syngo_MR_B19", 
    "SpacingBetweenSlices": 3, 
    "StationName": "MRC35450", 
    "TxRefAmp": 461.109, 
    "dcmmeta_affine": [
        [
            -2.9979851245880127, 
            -1.7653934492045664e-07, 
            0.1099311113357544, 
            100.00770568847656
        ], 
        [
            -0.010536608286201954, 
            2.9861886501312256, 
            -0.28734397888183594, 
            -70.78457641601562
        ], 
        [
            0.10942501574754715, 
            0.28753727674484253, 
            2.984180450439453, 
            -64.75432586669922
        ], 
        [
            0.0, 
            0.0, 
            0.0, 
            1.0
        ]
    ], 
    "dcmmeta_reorient_transform": [
        [
            0.0, 
            -1.0, 
            0.0, 
            67.0
        ], 
        [
            1.0, 
            0.0, 
            0.0, 
            0.0
        ], 
        [
            0.0, 
            0.0, 
            -1.0, 
            35.0
        ], 
        [
            0.0, 
            0.0, 
            0.0, 
            1.0
        ]
    ], 
    "dcmmeta_shape": [
        68, 
        68, 
        36
    ], 
    "dcmmeta_slice_dim": 2, 
    "dcmmeta_version": 0.6, 
    "global": {
        "const": {
            "AcquisitionMatrix": [
                68, 
                0, 
                0, 
                68
            ], 
            "AcquisitionNumber": 1, 
            "AngioFlag": "N", 
            "BitsAllocated": 16, 
            "BitsStored": 12, 
            "Columns": 68, 
            "EchoNumbers": 2, 
            "EchoTime": 7.65, 
            "EchoTrainLength": 1, 
            "FlipAngle": 60.0, 
            "HighBit": 11, 
            "ImageOrientationPatient": [
                0.9993283936518, 
                0.0035122028204, 
                0.03647500613653, 
                -5.8846447e-08, 
                0.99539619806099, 
                -0.0958457557001
            ], 
            "ImageType": [
                "ORIGINAL", 
                "PRIMARY", 
                "P", 
                "ND"
            ], 
            "ImagedNucleus": "1H", 
            "ImagingFrequency": 123.218432, 
            "InPlanePhaseEncodingDirection": "COL", 
            "MRAcquisitionType": "2D", 
            "MagneticFieldStrength": 3.0, 
            "Manufacturer": "SIEMENS", 
            "ManufacturerModelName": "TrioTim", 
            "Modality": "MR", 
            "NumberOfAverages": 1.0, 
            "NumberOfPhaseEncodingSteps": 68, 
            "PercentPhaseFieldOfView": 100.0, 
            "PercentSampling": 100.0, 
            "PerformedProcedureStepStartTime": "102358.359000", 
            "PhotometricInterpretation": "MONOCHROME2", 
            "PixelBandwidth": 261.0, 
            "PixelRepresentation": 0, 
            "PixelSpacing": [
                3.0, 
                3.0
            ], 
            "ProtocolName": "gre_field_mapping", 
            "RepetitionTime": 402.0, 
            "RescaleIntercept": -4096.0, 
            "RescaleSlope": 2.0, 
            "RescaleType": "US", 
            "Rows": 68, 
            "SAR": 0.38088591193023, 
            "SamplesPerPixel": 1, 
            "ScanningSequence": "GR", 
            "SequenceName": "*fm2d2r", 
            "SequenceVariant": "SP", 
            "SeriesDescription": "gre_field_mapping", 
            "SeriesNumber": 4, 
            "SeriesTime": "103405.687000", 
            "SliceThickness": 2.5, 
            "SoftwareVersions": "syngo MR B19", 
            "SpacingBetweenSlices": 3.0, 
            "SpecificCharacterSet": "ISO_IR 100", 
            "StudyID": "1", 
            "StudyTime": "102358.281000", 
            "TransmitCoilName": "Body", 
            "VariableFlipAngleFlag": "N", 
            "WindowCenterWidthExplanation": "Algo1", 
            "dBdt": 0.0
        }, 
        "slices": {
            "AcquisitionTime": [
                "103305.580000", 
                "103305.377500", 
                "103305.590000", 
                "103305.387500", 
                "103305.602500", 
                "103305.400000", 
                "103305.612500", 
                "103305.410000", 
                "103305.625000", 
                "103305.422500", 
                "103305.635000", 
                "103305.432500", 
                "103305.647500", 
                "103305.445000", 
                "103305.657500", 
                "103305.455000", 
                "103305.667500", 
                "103305.467500", 
                "103305.680000", 
                "103305.477500", 
                "103305.690000", 
                "103305.490000", 
                "103305.702500", 
                "103305.500000", 
                "103305.712500", 
                "103305.512500", 
                "103305.725000", 
                "103305.522500", 
                "103305.735000", 
                "103305.535000", 
                "103305.747500", 
                "103305.545000", 
                "103305.757500", 
                "103305.557500", 
                "103305.770000", 
                "103305.567500"
            ], 
            "ContentTime": [
                "103405.718000", 
                "103405.687000", 
                "103405.734000", 
                "103405.687000", 
                "103405.734000", 
                "103405.687000", 
                "103405.734000", 
                "103405.687000", 
                "103405.734000", 
                "103405.687000", 
                "103405.734000", 
                "103405.703000", 
                "103405.734000", 
                "103405.703000", 
                "103405.734000", 
                "103405.703000", 
                "103405.734000", 
                "103405.703000", 
                "103405.734000", 
                "103405.703000", 
                "103405.750000", 
                "103405.703000", 
                "103405.750000", 
                "103405.718000", 
                "103405.750000", 
                "103405.718000", 
                "103405.750000", 
                "103405.718000", 
                "103405.750000", 
                "103405.718000", 
                "103405.750000", 
                "103405.718000", 
                "103405.765000", 
                "103405.718000", 
                "103405.765000", 
                "103405.718000"
            ], 
            "CsaImage.ICE_Dims": [
                "X_2_1_1_1_1_1_19_1_1_1_1_16", 
                "X_2_1_1_1_1_1_1_1_1_2_1_16", 
                "X_2_1_1_1_1_1_20_1_1_3_1_16", 
                "X_2_1_1_1_1_1_2_1_1_4_1_16", 
                "X_2_1_1_1_1_1_21_1_1_5_1_16", 
                "X_2_1_1_1_1_1_3_1_1_6_1_16", 
                "X_2_1_1_1_1_1_22_1_1_7_1_16", 
                "X_2_1_1_1_1_1_4_1_1_8_1_16", 
                "X_2_1_1_1_1_1_23_1_1_9_1_16", 
                "X_2_1_1_1_1_1_5_1_1_10_1_16", 
                "X_2_1_1_1_1_1_24_1_1_11_1_16", 
                "X_2_1_1_1_1_1_6_1_1_12_1_16", 
                "X_2_1_1_1_1_1_25_1_1_13_1_16", 
                "X_2_1_1_1_1_1_7_1_1_14_1_16", 
                "X_2_1_1_1_1_1_26_1_1_15_1_16", 
                "X_2_1_1_1_1_1_8_1_1_16_1_16", 
                "X_2_1_1_1_1_1_27_1_1_17_1_16", 
                "X_2_1_1_1_1_1_9_1_1_18_1_16", 
                "X_2_1_1_1_1_1_28_1_1_19_1_16", 
                "X_2_1_1_1_1_1_10_1_1_20_1_16", 
                "X_2_1_1_1_1_1_29_1_1_21_1_16", 
                "X_2_1_1_1_1_1_11_1_1_22_1_16", 
                "X_2_1_1_1_1_1_30_1_1_23_1_16", 
                "X_2_1_1_1_1_1_12_1_1_24_1_16", 
                "X_2_1_1_1_1_1_31_1_1_25_1_16", 
                "X_2_1_1_1_1_1_13_1_1_26_1_16", 
                "X_2_1_1_1_1_1_32_1_1_27_1_16", 
                "X_2_1_1_1_1_1_14_1_1_28_1_16", 
                "X_2_1_1_1_1_1_33_1_1_29_1_16", 
                "X_2_1_1_1_1_1_15_1_1_30_1_16", 
                "X_2_1_1_1_1_1_34_1_1_31_1_16", 
                "X_2_1_1_1_1_1_16_1_1_32_1_16", 
                "X_2_1_1_1_1_1_35_1_1_33_1_16", 
                "X_2_1_1_1_1_1_17_1_1_34_1_16", 
                "X_2_1_1_1_1_1_36_1_1_35_1_16", 
                "X_2_1_1_1_1_1_18_1_1_36_1_16"
            ], 
            "CsaImage.ProtocolSliceNumber": [
                0, 
                1, 
                2, 
                3, 
                4, 
                5, 
                6, 
                7, 
                8, 
                9, 
                10, 
                11, 
                12, 
                13, 
                14, 
                15, 
                16, 
                17, 
                18, 
                19, 
                20, 
                21, 
                22, 
                23, 
                24, 
                25, 
                26, 
                27, 
                28, 
                29, 
                30, 
                31, 
                32, 
                33, 
                34, 
                35
            ], 
            "CsaImage.SliceMeasurementDuration": [
                54082.5, 
                54085.0, 
                54085.0, 
                54085.0, 
                54082.5, 
                54085.0, 
                54085.0, 
                54085.0, 
                54082.5, 
                54085.0, 
                54085.0, 
                54085.0, 
                54082.5, 
                54085.0, 
                54085.0, 
                54085.0, 
                54085.0, 
                54085.0, 
                54085.0, 
                54085.0, 
                54085.0, 
                54085.0, 
                54085.0, 
                54085.0, 
                54085.0, 
                54082.5, 
                54085.0, 
                54085.0, 
                54085.0, 
                54082.5, 
                54085.0, 
                54085.0, 
                54085.0, 
                54082.5, 
                54085.0, 
                54085.0
            ], 
            "CsaImage.SlicePosition_PCS": [
                [
                    -100.0076954, 
                    -129.29006222, 
                    -45.48942204
                ], 
                [
                    -100.11762652, 
                    -129.00271634, 
                    -42.50523777
                ], 
                [
                    -100.22755775, 
                    -128.71537236, 
                    -39.52105351
                ], 
                [
                    -100.33748886, 
                    -128.42802838, 
                    -36.53687306
                ], 
                [
                    -100.44741997, 
                    -128.1406844, 
                    -33.55268879
                ], 
                [
                    -100.55735108, 
                    -127.85334042, 
                    -30.56850453
                ], 
                [
                    -100.66728219, 
                    -127.56599644, 
                    -27.58432408
                ], 
                [
                    -100.7772133, 
                    -127.27865246, 
                    -24.60013981
                ], 
                [
                    -100.88714441, 
                    -126.99130849, 
                    -21.61595555
                ], 
                [
                    -100.99707558, 
                    -126.70396451, 
                    -18.63177319
                ], 
                [
                    -101.1070067, 
                    -126.41662053, 
                    -15.64759083
                ], 
                [
                    -101.21693781, 
                    -126.12927655, 
                    -12.66340657
                ], 
                [
                    -101.32686898, 
                    -125.84193257, 
                    -9.67922421
                ], 
                [
                    -101.43680009, 
                    -125.55458668, 
                    -6.6950409
                ], 
                [
                    -101.5467312, 
                    -125.26724271, 
                    -3.71085854
                ], 
                [
                    -101.65666234, 
                    -124.97989873, 
                    -0.72667523
                ], 
                [
                    -101.76659347, 
                    -124.69255475, 
                    2.25750808
                ], 
                [
                    -101.87652459, 
                    -124.40521077, 
                    5.24169104
                ], 
                [
                    -101.98645571, 
                    -124.11786679, 
                    8.22587399
                ], 
                [
                    -102.09638683, 
                    -123.83052281, 
                    11.21005706
                ], 
                [
                    -102.20631796, 
                    -123.54317883, 
                    14.19424038
                ], 
                [
                    -102.3162491, 
                    -123.25583485, 
                    17.17842369
                ], 
                [
                    -102.42618021, 
                    -122.96849087, 
                    20.16260604
                ], 
                [
                    -102.53611132, 
                    -122.6811469, 
                    23.14678936
                ], 
                [
                    -102.64604249, 
                    -122.39380101, 
                    26.13097171
                ], 
                [
                    -102.7559736, 
                    -122.10645703, 
                    29.11515598
                ], 
                [
                    -102.86590472, 
                    -121.81911305, 
                    32.09933834
                ], 
                [
                    -102.97583589, 
                    -121.53176907, 
                    35.08352069
                ], 
                [
                    -103.085767, 
                    -121.24442509, 
                    38.06770305
                ], 
                [
                    -103.19569811, 
                    -120.95708111, 
                    41.05188732
                ], 
                [
                    -103.30562922, 
                    -120.66973714, 
                    44.03607158
                ], 
                [
                    -103.41556033, 
                    -120.38239316, 
                    47.02025203
                ], 
                [
                    -103.52549144, 
                    -120.09504918, 
                    50.0044363
                ], 
                [
                    -103.63542255, 
                    -119.8077052, 
                    52.98862056
                ], 
                [
                    -103.74535379, 
                    -119.52036122, 
                    55.97280483
                ], 
                [
                    -103.8552849, 
                    -119.23301724, 
                    58.95698528
                ]
            ], 
            "CsaImage.TimeAfterStart": [
                0.6075, 
                0.405, 
                0.6175, 
                0.4175, 
                0.63, 
                0.4275, 
                0.64, 
                0.44, 
                0.6525, 
                0.45, 
                0.6625, 
                0.4625, 
                0.675, 
                0.4725, 
                0.685, 
                0.485, 
                0.6975, 
                0.495, 
                0.7075, 
                0.5075, 
                0.72, 
                0.5175, 
                0.73, 
                0.53, 
                0.7425, 
                0.54, 
                0.7525, 
                0.5525, 
                0.765, 
                0.5625, 
                0.775, 
                0.5725, 
                0.7875, 
                0.585, 
                0.7975, 
                0.595
            ], 
            "ImagePositionPatient": [
                [
                    -100.00769540375, 
                    -129.29006222437, 
                    -45.489422039392
                ], 
                [
                    -100.11762651508, 
                    -129.00271633814, 
                    -42.505237774256
                ], 
                [
                    -100.22755774563, 
                    -128.71537235926, 
                    -39.521053509119
                ], 
                [
                    -100.33748885696, 
                    -128.42802838038, 
                    -36.53687305868
                ], 
                [
                    -100.4474199683, 
                    -128.1406844015, 
                    -33.552688793543
                ], 
                [
                    -100.55735107964, 
                    -127.85334042262, 
                    -30.568504528406
                ], 
                [
                    -100.66728219097, 
                    -127.56599644373, 
                    -27.584324077967
                ], 
                [
                    -100.77721330231, 
                    -127.27865246485, 
                    -24.60013981283
                ], 
                [
                    -100.88714441364, 
                    -126.99130848597, 
                    -21.615955547693
                ], 
                [
                    -100.99707558458, 
                    -126.70396450709, 
                    -18.631773189905
                ], 
                [
                    -101.10700669592, 
                    -126.41662052821, 
                    -15.647590832117
                ], 
                [
                    -101.21693780725, 
                    -126.12927654933, 
                    -12.66340656698
                ], 
                [
                    -101.32686897819, 
                    -125.84193257044, 
                    -9.6792242091923
                ], 
                [
                    -101.43680008953, 
                    -125.55458668421, 
                    -6.6950408977299
                ], 
                [
                    -101.54673120087, 
                    -125.26724270533, 
                    -3.7108585399418
                ], 
                [
                    -101.656662342, 
                    -124.97989872645, 
                    -0.7266752284794
                ], 
                [
                    -101.76659346824, 
                    -124.69255474757, 
                    2.257508082983
                ], 
                [
                    -101.87652458703, 
                    -124.40521076869, 
                    5.2416910368176
                ], 
                [
                    -101.98645571326, 
                    -124.1178667898, 
                    8.2258739906521
                ], 
                [
                    -102.09638683205, 
                    -123.83052281092, 
                    11.210057063696
                ], 
                [
                    -102.20631795829, 
                    -123.54317883204, 
                    14.194240375158
                ], 
                [
                    -102.31624909943, 
                    -123.25583485316, 
                    17.178423686621
                ], 
                [
                    -102.42618021076, 
                    -122.96849087428, 
                    20.162606044409
                ], 
                [
                    -102.5361113221, 
                    -122.68114689539, 
                    23.146789355871
                ], 
                [
                    -102.64604249304, 
                    -122.39380100916, 
                    26.130971713659
                ], 
                [
                    -102.75597360437, 
                    -122.10645703028, 
                    29.115155978796
                ], 
                [
                    -102.86590471571, 
                    -121.8191130514, 
                    32.099338336584
                ], 
                [
                    -102.97583588665, 
                    -121.53176907252, 
                    35.083520694372
                ], 
                [
                    -103.08576699799, 
                    -121.24442509364, 
                    38.06770305216
                ], 
                [
                    -103.19569810932, 
                    -120.95708111476, 
                    41.051887317297
                ], 
                [
                    -103.30562922066, 
                    -120.66973713587, 
                    44.036071582434
                ], 
                [
                    -103.41556033199, 
                    -120.38239315699, 
                    47.020252032873
                ], 
                [
                    -103.52549144333, 
                    -120.09504917811, 
                    50.00443629801
                ], 
                [
                    -103.63542255466, 
                    -119.80770519923, 
                    52.988620563147
                ], 
                [
                    -103.74535378521, 
                    -119.52036122035, 
                    55.972804828283
                ], 
                [
                    -103.85528489654, 
                    -119.23301724146, 
                    58.956985278723
                ]
            ], 
            "InstanceCreationTime": [
                "103405.718000", 
                "103405.687000", 
                "103405.734000", 
                "103405.687000", 
                "103405.734000", 
                "103405.687000", 
                "103405.734000", 
                "103405.687000", 
                "103405.734000", 
                "103405.687000", 
                "103405.734000", 
                "103405.703000", 
                "103405.734000", 
                "103405.703000", 
                "103405.734000", 
                "103405.703000", 
                "103405.734000", 
                "103405.703000", 
                "103405.734000", 
                "103405.703000", 
                "103405.750000", 
                "103405.703000", 
                "103405.750000", 
                "103405.718000", 
                "103405.750000", 
                "103405.718000", 
                "103405.750000", 
                "103405.718000", 
                "103405.750000", 
                "103405.718000", 
                "103405.750000", 
                "103405.718000", 
                "103405.765000", 
                "103405.718000", 
                "103405.765000", 
                "103405.718000"
            ], 
            "InstanceNumber": [
                1, 
                2, 
                3, 
                4, 
                5, 
                6, 
                7, 
                8, 
                9, 
                10, 
                11, 
                12, 
                13, 
                14, 
                15, 
                16, 
                17, 
                18, 
                19, 
                20, 
                21, 
                22, 
                23, 
                24, 
                25, 
                26, 
                27, 
                28, 
                29, 
                30, 
                31, 
                32, 
                33, 
                34, 
                35, 
                36
            ], 
            "LargestImagePixelValue": [
                4094, 
                4092, 
                4088, 
                4094, 
                4091, 
                4087, 
                4094, 
                4089, 
                4091, 
                4091, 
                4076, 
                4089, 
                4090, 
                4094, 
                4090, 
                4094, 
                4088, 
                4090, 
                4094, 
                4094, 
                4094, 
                4086, 
                4093, 
                4094, 
                4092, 
                4093, 
                4094, 
                4089, 
                4087, 
                4092, 
                4093, 
                4087, 
                4093, 
                4092, 
                4094, 
                4094
            ], 
            "SliceLocation": [
                -53.968515180394, 
                -50.968513807751, 
                -47.968512613428, 
                -44.968515218058, 
                -41.968514028104, 
                -38.968512838149, 
                -35.96851544278, 
                -32.968514252825, 
                -29.968513062871, 
                -26.968513768025, 
                -23.968514475363, 
                -20.968513285408, 
                -17.968513990562, 
                -14.968513566565, 
                -11.968514273903, 
                -8.9685140315026, 
                -5.9685137896483, 
                -2.9685139038093, 
                0.0314859823027, 
                3.0314859867224, 
                6.0314862285768, 
                9.0314864709771, 
                12.031485763639, 
                15.031486004947, 
                18.031485482482, 
                21.031486672437, 
                24.031485965099, 
                27.031485259945, 
                30.031484552607, 
                33.031485742562, 
                36.031486932516, 
                39.031484327886, 
                42.03148551784, 
                45.031486707795, 
                48.031487902118, 
                51.031485297487
            ], 
            "SmallestImagePixelValue": [
                0, 
                3, 
                2, 
                8, 
                3, 
                0, 
                5, 
                3, 
                9, 
                1, 
                9, 
                8, 
                2, 
                3, 
                6, 
                6, 
                6, 
                3, 
                4, 
                2, 
                4, 
                0, 
                1, 
                1, 
                1, 
                2, 
                2, 
                0, 
                0, 
                6, 
                4, 
                2, 
                0, 
                0, 
                1, 
                6
            ], 
            "WindowCenter": [
                -360.0, 
                -408.0, 
                -426.0, 
                -490.0, 
                -508.0, 
                -512.0, 
                -474.0, 
                -416.0, 
                -374.0, 
                -314.0, 
