{
    "AcquisitionMatrixPE": 68, 
    "AcquisitionNumber": 1, 
    "AcquisitionTime": "15:27:32.617500", 
    "BaseResolution": 68, 
    "CoilString": "C:HEA;HEP", 
    "ConversionSoftware": "dcm2niix", 
    "ConversionSoftwareVersion": "v1.0.20190902", 
    "DeviceSerialNumber": "35450", 
    "DwellTime": 2.82e-05, 
    "EchoNumber": 2, 
    "EchoTime": 0.00765, 
    "EchoTime1": 0.00519, 
    "EchoTime2": 0.00765, 
    "FlipAngle": 60, 
    "ImageOrientationPatientDICOM": [
        1, 
        0, 
        0, 
        0, 
        0.996041, 
        0.0888943
    ], 
    "ImageType": [
        "ORIGINAL", 
        "PRIMARY", 
        "P", 
        "ND"
    ], 
    "ImagingFrequency": 123.219, 
    "InPlanePhaseEncodingDirectionDICOM": "COL", 
    "InstitutionAddress": "Univeristy_Ave._197_Newark_North_East_US_07102-1814", 
    "InstitutionName": "RUBIC", 
    "InstitutionalDepartmentName": "Department", 
    "IntendedFor": [
        "func/sub-217_task-cardgame_run-02_bold.nii.gz", 
        "func/sub-217_task-rest_run-01_bold.nii.gz", 
        "func/sub-217_task-rest_run-02_bold.nii.gz", 
        "func/sub-217_task-cardgame_run-03_bold.nii.gz", 
        "func/sub-217_task-cardgame_run-01_bold.nii.gz", 
        "func/sub-217_task-rest_run-03_bold.nii.gz", 
        "func/sub-217_task-rest_run-04_bold.nii.gz"
    ], 
    "MRAcquisitionType": "2D", 
    "MagneticFieldStrength": 3, 
    "Manufacturer": "Siemens", 
    "ManufacturersModelName": "TrioTim", 
    "Modality": "MR", 
    "MultibandAccelerationFactor": 2, 
    "PartialFourier": 1, 
    "PatientPosition": "HFS", 
    "PercentPhaseFOV": 100, 
    "PhaseEncodingDirection": "j-", 
    "PhaseEncodingSteps": 68, 
    "PhaseResolution": 1, 
    "PixelBandwidth": 261, 
    "ProcedureStepDescription": "Krekelberg_David", 
    "ProtocolName": "gre_field_mapping", 
    "PulseSequenceDetails": "%SiemensSeq%_gre_field_mapping", 
    "ReceiveCoilName": "HeadMatrix", 
    "ReconMatrixPE": 68, 
    "RepetitionTime": 0.402, 
    "SAR": 0.318332, 
    "ScanningSequence": "GR", 
    "SequenceName": "_fm2d2r", 
    "SequenceVariant": "SP", 
    "SeriesDescription": "gre_field_mapping", 
    "SeriesNumber": 5, 
    "ShimSetting": [
        1936, 
        -713, 
        -7555, 
        640, 
        136, 
        -102, 
        113, 
        -52
    ], 
    "SliceThickness": 2.5, 
    "SliceTiming": [
        0.20312, 
        0, 
        0.20312, 
        0, 
        0.21875, 
        0.01562, 
        0.23438, 
        0.03125, 
        0.23438, 
        0.04688, 
        0.25, 
        0.04688, 
        0.26562, 
        0.0625, 
        0.28125, 
        0.07812, 
        0.28125, 
        0.07812, 
        0.29688, 
        0.09375, 
        0.3125, 
        0.10938, 
        0.32812, 
        0.125, 
        0.32812, 
        0.125, 
        0.34375, 
        0.14062, 
        0.35938, 
        0.15625, 
        0.35938, 
        0.15625, 
        0.375, 
        0.17188, 
        0.39062, 
        0.1875
    ], 
    "SoftwareVersions": "syngo_MR_B19", 
    "SpacingBetweenSlices": 3, 
    "StationName": "MRC35450", 
    "TxRefAmp": 378.862, 
    "dcmmeta_affine": [
        [
            -3.0, 
            0.0, 
            0.0, 
            101.32203674316406
        ], 
        [
            0.0, 
            2.9881231784820557, 
            0.2666816711425781, 
            -68.69869995117188
        ], 
        [
            0.0, 
            -0.266682893037796, 
            2.9881210327148438, 
            -31.288156509399414
        ], 
        [
            0.0, 
            0.0, 
            0.0, 
            1.0
        ]
    ], 
    "dcmmeta_reorient_transform": [
        [
            0.0, 
            -1.0, 
            0.0, 
            67.0
        ], 
        [
            1.0, 
            0.0, 
            0.0, 
            0.0
        ], 
        [
            0.0, 
            0.0, 
            -1.0, 
            35.0
        ], 
        [
            0.0, 
            0.0, 
            0.0, 
            1.0
        ]
    ], 
    "dcmmeta_shape": [
        68, 
        68, 
        36
    ], 
    "dcmmeta_slice_dim": 2, 
    "dcmmeta_version": 0.6, 
    "global": {
        "const": {
            "AcquisitionMatrix": [
                68, 
                0, 
                0, 
                68
            ], 
            "AcquisitionNumber": 1, 
            "AngioFlag": "N", 
            "BitsAllocated": 16, 
            "BitsStored": 12, 
            "Columns": 68, 
            "EchoNumbers": 2, 
            "EchoTime": 7.65, 
            "EchoTrainLength": 1, 
            "FlipAngle": 60.0, 
            "HighBit": 11, 
            "ImageOrientationPatient": [
                1.0, 
                0.0, 
                0.0, 
                0.0, 
                0.99604106564855, 
                0.08889429420219
            ], 
            "ImageType": [
                "ORIGINAL", 
                "PRIMARY", 
                "P", 
                "ND"
            ], 
            "ImagedNucleus": "1H", 
            "ImagingFrequency": 123.218518, 
            "InPlanePhaseEncodingDirection": "COL", 
            "MRAcquisitionType": "2D", 
            "MagneticFieldStrength": 3.0, 
            "Manufacturer": "SIEMENS", 
            "ManufacturerModelName": "TrioTim", 
            "Modality": "MR", 
            "NumberOfAverages": 1.0, 
            "NumberOfPhaseEncodingSteps": 68, 
            "PercentPhaseFieldOfView": 100.0, 
            "PercentSampling": 100.0, 
            "PerformedProcedureStepStartTime": "150344.265000", 
            "PhotometricInterpretation": "MONOCHROME2", 
            "PixelBandwidth": 261.0, 
            "PixelRepresentation": 0, 
            "PixelSpacing": [
                3.0, 
                3.0
            ], 
            "ProtocolName": "gre_field_mapping", 
            "RepetitionTime": 402.0, 
            "RescaleIntercept": -4096.0, 
            "RescaleSlope": 2.0, 
            "RescaleType": "US", 
            "Rows": 68, 
            "SAR": 0.31833227426682, 
            "SamplesPerPixel": 1, 
            "ScanningSequence": "GR", 
            "SequenceName": "*fm2d2r", 
            "SequenceVariant": "SP", 
            "SeriesDescription": "gre_field_mapping", 
            "SeriesNumber": 5, 
            "SeriesTime": "152834.140000", 
            "SliceThickness": 2.5, 
            "SoftwareVersions": "syngo MR B19", 
            "SpacingBetweenSlices": 3.0, 
            "SpecificCharacterSet": "ISO_IR 100", 
            "StudyID": "1", 
            "StudyTime": "150344.218000", 
            "TransmitCoilName": "Body", 
            "VariableFlipAngleFlag": "N", 
            "WindowCenterWidthExplanation": "Algo1", 
            "dBdt": 0.0
        }, 
        "slices": {
            "AcquisitionTime": [
                "152732.617500", 
                "152732.417500", 
                "152732.630000", 
                "152732.427500", 
                "152732.640000", 
                "152732.440000", 
                "152732.652500", 
                "152732.450000", 
                "152732.662500", 
                "152732.462500", 
                "152732.675000", 
                "152732.472500", 
                "152732.685000", 
                "152732.485000", 
                "152732.697500", 
                "152732.495000", 
                "152732.707500", 
                "152732.507500", 
                "152732.720000", 
                "152732.517500", 
                "152732.730000", 
                "152732.530000", 
                "152732.742500", 
                "152732.540000", 
                "152732.752500", 
                "152732.552500", 
                "152732.765000", 
                "152732.562500", 
                "152732.775000", 
                "152732.575000", 
                "152732.787500", 
                "152732.585000", 
                "152732.797500", 
                "152732.597500", 
                "152732.810000", 
                "152732.607500"
            ], 
            "ContentTime": [
                "152834.171000", 
                "152834.140000", 
                "152834.171000", 
                "152834.140000", 
                "152834.171000", 
                "152834.140000", 
                "152834.171000", 
                "152834.140000", 
                "152834.171000", 
                "152834.140000", 
                "152834.171000", 
                "152834.140000", 
                "152834.187000", 
                "152834.140000", 
                "152834.187000", 
                "152834.156000", 
                "152834.187000", 
                "152834.156000", 
                "152834.187000", 
                "152834.156000", 
                "152834.187000", 
                "152834.156000", 
                "152834.187000", 
                "152834.156000", 
                "152834.187000", 
                "152834.156000", 
                "152834.187000", 
                "152834.156000", 
                "152834.203000", 
                "152834.156000", 
                "152834.203000", 
                "152834.171000", 
                "152834.265000", 
                "152834.171000", 
                "152834.265000", 
                "152834.171000"
            ], 
            "CsaImage.ICE_Dims": [
                "X_2_1_1_1_1_1_19_1_1_1_1_153", 
                "X_2_1_1_1_1_1_1_1_1_2_1_153", 
                "X_2_1_1_1_1_1_20_1_1_3_1_153", 
                "X_2_1_1_1_1_1_2_1_1_4_1_153", 
                "X_2_1_1_1_1_1_21_1_1_5_1_153", 
                "X_2_1_1_1_1_1_3_1_1_6_1_153", 
                "X_2_1_1_1_1_1_22_1_1_7_1_153", 
                "X_2_1_1_1_1_1_4_1_1_8_1_153", 
                "X_2_1_1_1_1_1_23_1_1_9_1_153", 
                "X_2_1_1_1_1_1_5_1_1_10_1_153", 
                "X_2_1_1_1_1_1_24_1_1_11_1_153", 
                "X_2_1_1_1_1_1_6_1_1_12_1_153", 
                "X_2_1_1_1_1_1_25_1_1_13_1_153", 
                "X_2_1_1_1_1_1_7_1_1_14_1_153", 
                "X_2_1_1_1_1_1_26_1_1_15_1_153", 
                "X_2_1_1_1_1_1_8_1_1_16_1_153", 
                "X_2_1_1_1_1_1_27_1_1_17_1_153", 
                "X_2_1_1_1_1_1_9_1_1_18_1_153", 
                "X_2_1_1_1_1_1_28_1_1_19_1_153", 
                "X_2_1_1_1_1_1_10_1_1_20_1_153", 
                "X_2_1_1_1_1_1_29_1_1_21_1_153", 
                "X_2_1_1_1_1_1_11_1_1_22_1_153", 
                "X_2_1_1_1_1_1_30_1_1_23_1_153", 
                "X_2_1_1_1_1_1_12_1_1_24_1_153", 
                "X_2_1_1_1_1_1_31_1_1_25_1_153", 
                "X_2_1_1_1_1_1_13_1_1_26_1_153", 
                "X_2_1_1_1_1_1_32_1_1_27_1_153", 
                "X_2_1_1_1_1_1_14_1_1_28_1_153", 
                "X_2_1_1_1_1_1_33_1_1_29_1_153", 
                "X_2_1_1_1_1_1_15_1_1_30_1_153", 
                "X_2_1_1_1_1_1_34_1_1_31_1_153", 
                "X_2_1_1_1_1_1_16_1_1_32_1_153", 
                "X_2_1_1_1_1_1_35_1_1_33_1_153", 
                "X_2_1_1_1_1_1_17_1_1_34_1_153", 
                "X_2_1_1_1_1_1_36_1_1_35_1_153", 
                "X_2_1_1_1_1_1_18_1_1_36_1_153"
            ], 
            "CsaImage.ProtocolSliceNumber": [
                0, 
                1, 
                2, 
                3, 
                4, 
                5, 
                6, 
                7, 
                8, 
                9, 
                10, 
                11, 
                12, 
                13, 
                14, 
                15, 
                16, 
                17, 
                18, 
                19, 
                20, 
                21, 
                22, 
                23, 
                24, 
                25, 
                26, 
                27, 
                28, 
                29, 
                30, 
                31, 
                32, 
                33, 
                34, 
                35
            ], 
            "CsaImage.SliceMeasurementDuration": [
                54085.0, 
                54085.0, 
                54085.0, 
                54085.0, 
                54085.0, 
                54085.0, 
                54085.0, 
                54085.0, 
                54085.0, 
                54082.5, 
                54085.0, 
                54085.0, 
                54085.0, 
                54082.5, 
                54085.0, 
                54085.0, 
                54085.0, 
                54082.5, 
                54085.0, 
                54085.0, 
                54085.0, 
                54082.5, 
                54085.0, 
                54085.0, 
                54085.0, 
                54082.5, 
                54082.5, 
                54085.0, 
                54085.0, 
                54082.5, 
                54082.5, 
                54085.0, 
                54085.0, 
                54082.5, 
                54082.5, 
                54085.0
            ], 
            "CsaImage.SlicePosition_PCS": [
                [
                    -101.32203388, 
                    -131.50550953, 
                    -49.1559822
                ], 
                [
                    -101.32203388, 
                    -131.77219311, 
                    -46.16786117
                ], 
                [
                    -101.32203388, 
                    -132.03887668, 
                    -43.17973632
                ], 
                [
                    -101.32203388, 
                    -132.30555836, 
                    -40.19161338
                ], 
                [
                    -101.32203388, 
                    -132.57224193, 
                    -37.20349044
                ], 
                [
                    -101.32203388, 
                    -132.83892551, 
                    -34.2153675
                ], 
                [
                    -101.32203388, 
                    -133.10560718, 
                    -31.22724456
                ], 
                [
                    -101.32203388, 
                    -133.37229076, 
                    -28.23912162
                ], 
                [
                    -101.32203388, 
                    -133.63897434, 
                    -25.25099868
                ], 
                [
                    -101.32203388, 
                    -133.90565601, 
                    -22.26287479
                ], 
                [
                    -101.32203388, 
                    -134.17233768, 
                    -19.27475184
                ], 
                [
                    -101.32203388, 
                    -134.43902317, 
                    -16.28662843
                ], 
                [
                    -101.32203388, 
                    -134.70570484, 
                    -13.29850549
                ], 
                [
                    -101.32203388, 
                    -134.97238651, 
                    -10.31038219
                ], 
                [
                    -101.32203388, 
                    -135.239072, 
                    -7.32225901
                ], 
                [
                    -101.32203388, 
                    -135.50575367, 
                    -4.33413571
                ], 
                [
                    -101.32203388, 
                    -135.77243534, 
                    -1.34601277
                ], 
                [
                    -101.32203388, 
                    -136.03912083, 
                    1.64211064
                ], 
                [
                    -101.32203388, 
                    -136.3058025, 
                    4.63023358
                ], 
                [
                    -101.32203388, 
                    -136.57248417, 
                    7.61835748
                ], 
                [
                    -101.32203388, 
                    -136.83916965, 
                    10.60648042
                ], 
                [
                    -101.32203388, 
                    -137.10585132, 
                    13.59460336
                ], 
                [
                    -101.32203388, 
                    -137.372533, 
                    16.5827263
                ], 
                [
                    -101.32203388, 
                    -137.63921848, 
                    19.57084924
                ], 
                [
                    -101.32203388, 
                    -137.90590015, 
                    22.55897218
                ], 
                [
                    -101.32203388, 
                    -138.17258182, 
                    25.54709702
                ], 
                [
                    -101.32203388, 
                    -138.43926349, 
                    28.53521806
                ], 
                [
                    -101.32203388, 
                    -138.70594898, 
                    31.5233429
                ], 
                [
                    -101.32203388, 
                    -138.97263065, 
                    34.51146394
                ], 
                [
                    -101.32203388, 
                    -139.23931232, 
                    37.49958878
                ], 
                [
                    -101.32203388, 
                    -139.50599781, 
                    40.48771363
                ], 
                [
                    -101.32203388, 
                    -139.77267948, 
                    43.47583466
                ], 
                [
                    -101.32203388, 
                    -140.03936115, 
                    46.46395951
                ], 
                [
                    -101.32203388, 
                    -140.30604664, 
                    49.45208054
                ], 
                [
                    -101.32203388, 
                    -140.57272831, 
                    52.44020539
                ], 
                [
                    -101.32203388, 
                    -140.83940998, 
                    55.42832642
                ]
            ], 
            "CsaImage.TimeAfterStart": [
                0.6075, 
                0.405, 
                0.6175, 
                0.4175, 
                0.63, 
                0.4275, 
                0.64, 
                0.44, 
                0.6525, 
                0.45, 
                0.6625, 
                0.4625, 
                0.675, 
                0.4725, 
                0.685, 
                0.4825, 
                0.6975, 
                0.495, 
                0.7075, 
                0.505, 
                0.72, 
                0.5175, 
                0.73, 
                0.5275, 
                0.7425, 
                0.54, 
                0.7525, 
                0.55, 
                0.765, 
                0.5625, 
                0.775, 
                0.5725, 
                0.7875, 
                0.585, 
                0.7975, 
                0.595
            ], 
            "ImagePositionPatient": [
                [
                    -101.32203388214, 
                    -131.50550952745, 
                    -49.155982199297
                ], 
                [
                    -101.32203388214, 
                    -131.77219310594, 
                    -46.167861166582
                ], 
                [
                    -101.32203388214, 
                    -132.03887668443, 
                    -43.17973631917
                ], 
                [
                    -101.32203388214, 
                    -132.30555835558, 
                    -40.191613379107
                ], 
                [
                    -101.32203388214, 
                    -132.57224193407, 
                    -37.203490439043
                ], 
                [
                    -101.32203388214, 
                    -132.83892551256, 
                    -34.21536749898
                ], 
                [
                    -101.32203388214, 
                    -133.1056071837, 
                    -31.227244558916
                ], 
                [
                    -101.32203388214, 
                    -133.37229076219, 
                    -28.239121618853
                ], 
                [
                    -101.32203388214, 
                    -133.63897434068, 
                    -25.250998678789
                ], 
                [
                    -101.32203388214, 
                    -133.90565601183, 
                    -22.262874785051
                ], 
                [
                    -101.32203388214, 
                    -134.17233768297, 
                    -19.274751844988
                ], 
                [
                    -101.32203388214, 
                    -134.43902316881, 
                    -16.286628428087
                ], 
                [
                    -101.32203388214, 
                    -134.70570483995, 
                    -13.298505488024
                ], 
                [
                    -101.32203388214, 
                    -134.97238651109, 
                    -10.310382190332
                ], 
                [
                    -101.32203388214, 
                    -135.23907199693, 
                    -7.3222590118504
                ], 
                [
                    -101.32203388214, 
                    -135.50575366808, 
                    -4.3341357141591
                ], 
                [
                    -101.32203388214, 
                    -135.77243533922, 
                    -1.3460127740956
                ], 
                [
                    -101.32203388214, 
                    -136.03912082506, 
                    1.642110642805
                ], 
                [
                    -101.32203388214, 
                    -136.3058024962, 
                    4.6302335828685
                ], 
                [
                    -101.32203388214, 
                    -136.57248416734, 
                    7.6183574766063
                ], 
                [
                    -101.32203388214, 
                    -136.83916965318, 
                    10.60648041667
                ], 
                [
                    -101.32203388214, 
                    -137.10585132433, 
                    13.594603356733
                ], 
                [
                    -101.32203388214, 
                    -137.37253299547, 
                    16.582726296797
                ], 
                [
                    -101.32203388214, 
                    -137.63921848131, 
                    19.57084923686
                ], 
                [
                    -101.32203388214, 
                    -137.90590015245, 
                    22.558972176924
                ], 
                [
                    -101.32203388214, 
                    -138.17258182359, 
                    25.547097024336
                ], 
                [
                    -101.32203388214, 
                    -138.43926349474, 
                    28.535218057051
                ], 
                [
                    -101.32203388214, 
                    -138.70594898058, 
                    31.523342904463
                ], 
                [
                    -101.32203388214, 
                    -138.97263065172, 
                    34.511463937178
                ], 
                [
                    -101.32203388214, 
                    -139.23931232286, 
                    37.49958878459
                ], 
                [
                    -101.32203388214, 
                    -139.5059978087, 
                    40.487713632002
                ], 
                [
                    -101.32203388214, 
                    -139.77267947984, 
                    43.475834664717
                ], 
                [
                    -101.32203388214, 
                    -140.03936115099, 
                    46.463959512129
                ], 
                [
                    -101.32203388214, 
                    -140.30604663683, 
                    49.452080544844
                ], 
                [
                    -101.32203388214, 
                    -140.57272830797, 
                    52.440205392256
                ], 
                [
                    -101.32203388214, 
                    -140.83940997911, 
                    55.428326424971
                ]
            ], 
            "InstanceCreationTime": [
                "152834.171000", 
                "152834.140000", 
                "152834.171000", 
                "152834.140000", 
                "152834.171000", 
                "152834.140000", 
                "152834.171000", 
                "152834.140000", 
                "152834.171000", 
                "152834.140000", 
                "152834.171000", 
                "152834.140000", 
                "152834.187000", 
                "152834.140000", 
                "152834.187000", 
                "152834.156000", 
                "152834.187000", 
                "152834.156000", 
                "152834.187000", 
                "152834.156000", 
                "152834.187000", 
                "152834.156000", 
                "152834.187000", 
                "152834.156000", 
                "152834.187000", 
                "152834.156000", 
                "152834.187000", 
                "152834.156000", 
                "152834.203000", 
                "152834.156000", 
                "152834.203000", 
                "152834.171000", 
                "152834.265000", 
                "152834.171000", 
                "152834.265000", 
                "152834.171000"
            ], 
            "InstanceNumber": [
                1, 
                2, 
                3, 
                4, 
                5, 
                6, 
                7, 
                8, 
                9, 
                10, 
                11, 
                12, 
                13, 
                14, 
                15, 
                16, 
                17, 
                18, 
                19, 
                20, 
                21, 
                22, 
                23, 
                24, 
                25, 
                26, 
                27, 
                28, 
                29, 
                30, 
                31, 
                32, 
                33, 
                34, 
                35, 
                36
            ], 
            "LargestImagePixelValue": [
                4090, 
                4090, 
                4093, 
                4090, 
                4090, 
                4088, 
                4090, 
                4091, 
                4091, 
                4090, 
                4088, 
                4090, 
                4088, 
                4081, 
                4091, 
                4094, 
                4087, 
                4079, 
                4065, 
                4094, 
                4092, 
                4093, 
                4082, 
                4091, 
                4092, 
                4090, 
                4087, 
                4090, 
                4087, 
                4076, 
                4094, 
                4094, 
                4094, 
                4094, 
                4093, 
                4092
            ], 
            "SliceLocation": [
                -37.271287439647, 
                -34.27128953345, 
                -31.271287827657, 
                -28.271288191214, 
                -25.271288385219, 
                -22.271288579224, 
                -19.271288942782, 
                -16.271289136787, 
                -13.271289330792, 
                -10.271288744451, 
                -7.271289108008, 
                -4.2712886575112, 
                -1.2712890210686, 
                1.728710971586, 
                4.7287111846081, 
                7.7287111772627, 
                10.728710813705, 
                13.728711264202, 
                16.728710900645, 
                19.728711486986, 
                22.728711462533, 
                25.728711098976, 
                28.728710735419, 
                31.728710710966, 
                34.728710347409, 
                37.728711883649, 
                40.728709620294, 
                43.728711495639, 
                46.728709232284, 
                49.728710768524, 
                52.728712643869, 
                55.728710380514, 
                58.728711916754, 
                61.728709992504, 
                64.728711528744, 
                67.728709265389
            ], 
            "SmallestImagePixelValue": [
                5, 
                4, 
                1, 
                1, 
                1, 
                2, 
                0, 
                5, 
                0, 
                9, 
                3, 
                16, 
                8, 
                0, 
                1, 
                6, 
                9, 
                7, 
                9, 
                1, 
                6, 
                2, 
                3, 
                0, 
                3, 
                15, 
                0, 
                8, 
                0, 
                1, 
                16, 
                0, 
                3, 
                1, 
                3, 
                1
            ], 
            "WindowCenter": [
                -266.0, 
                -248.0, 
                -268.0, 
                -260.0, 
                -272.0, 
                -254.0, 
                -228.0, 
                -248.0, 
                -188.0, 
                -180.0, 
                -154.0, 
                -124.0, 
                -136.0, 
