{
    "AcquisitionMatrixPE": 68, 
    "AcquisitionNumber": 1, 
    "AcquisitionTime": "15:45:18.937500", 
    "BaseResolution": 68, 
    "CoilString": "C:HEA;HEP", 
    "ConversionSoftware": "dcm2niix", 
    "ConversionSoftwareVersion": "v1.0.20190902", 
    "DeviceSerialNumber": "35450", 
    "DwellTime": 2.82e-05, 
    "EchoNumber": 2, 
    "EchoTime": 0.00765, 
    "EchoTime1": 0.00519, 
    "EchoTime2": 0.00765, 
    "FlipAngle": 60, 
    "ImageOrientationPatientDICOM": [
        0.999877, 
        0.00302397, 
        0.0154135, 
        2.85629e-08, 
        0.981293, 
        -0.192522
    ], 
    "ImageType": [
        "ORIGINAL", 
        "PRIMARY", 
        "P", 
        "ND"
    ], 
    "ImagingFrequency": 123.218, 
    "InPlanePhaseEncodingDirectionDICOM": "COL", 
    "InstitutionAddress": "Univeristy_Ave._197_Newark_North_East_US_07102-1814", 
    "InstitutionName": "RUBIC", 
    "InstitutionalDepartmentName": "Department", 
    "IntendedFor": [
        "func/sub-233_task-cardgame_run-01_bold.nii.gz", 
        "func/sub-233_task-rest_run-04_bold.nii.gz", 
        "func/sub-233_task-rest_run-01_bold.nii.gz", 
        "func/sub-233_task-rest_run-02_bold.nii.gz", 
        "func/sub-233_task-rest_run-03_bold.nii.gz", 
        "func/sub-233_task-cardgame_run-02_bold.nii.gz"
    ], 
    "MRAcquisitionType": "2D", 
    "MagneticFieldStrength": 3, 
    "Manufacturer": "Siemens", 
    "ManufacturersModelName": "TrioTim", 
    "Modality": "MR", 
    "PartialFourier": 1, 
    "PatientPosition": "HFS", 
    "PercentPhaseFOV": 100, 
    "PhaseEncodingDirection": "j-", 
    "PhaseEncodingSteps": 68, 
    "PhaseResolution": 1, 
    "PixelBandwidth": 261, 
    "ProcedureStepDescription": "Krekelberg_David", 
    "ProtocolName": "gre_field_mapping", 
    "PulseSequenceDetails": "%SiemensSeq%_gre_field_mapping", 
    "ReceiveCoilName": "HeadMatrix", 
    "ReconMatrixPE": 68, 
    "RepetitionTime": 0.402, 
    "SAR": 0.267413, 
    "ScanningSequence": "GR", 
    "SequenceName": "_fm2d2r", 
    "SequenceVariant": "SP", 
    "SeriesDescription": "gre_field_mapping", 
    "SeriesNumber": 4, 
    "ShimSetting": [
        1952, 
        -575, 
        -7515, 
        585, 
        232, 
        222, 
        -211, 
        -35
    ], 
    "SliceThickness": 2.5, 
    "SliceTiming": [
        0.20312, 
        0, 
        0.21875, 
        0.01562, 
        0.21875, 
        0.01562, 
        0.23438, 
        0.03125, 
        0.25, 
        0.04688, 
        0.26562, 
        0.0625, 
        0.26562, 
        0.0625, 
        0.28125, 
        0.07812, 
        0.29688, 
        0.09375, 
        0.29688, 
        0.09375, 
        0.3125, 
        0.10938, 
        0.32812, 
        0.125, 
        0.32812, 
        0.14062, 
        0.34375, 
        0.14062, 
        0.35938, 
        0.15625, 
        0.375, 
        0.17188, 
        0.375, 
        0.1875, 
        0.39062, 
        0.1875
    ], 
    "SoftwareVersions": "syngo_MR_B19", 
    "SpacingBetweenSlices": 3, 
    "StationName": "MRC35450", 
    "TxRefAmp": 458.289, 
    "dcmmeta_affine": [
        [
            -2.9996299743652344, 
            8.56886686051439e-08, 
            0.04712200164794922, 
            101.84074401855469
        ], 
        [
            -0.009071922861039639, 
            2.943877935409546, 
            -0.5774946212768555, 
            -83.34354400634766
        ], 
        [
            0.0462404228746891, 
            0.5775659084320068, 
            2.9435195922851562, 
            -51.804542541503906
        ], 
        [
            0.0, 
            0.0, 
            0.0, 
            1.0
        ]
    ], 
    "dcmmeta_reorient_transform": [
        [
            0.0, 
            -1.0, 
            0.0, 
            67.0
        ], 
        [
            1.0, 
            0.0, 
            0.0, 
            0.0
        ], 
        [
            0.0, 
            0.0, 
            -1.0, 
            35.0
        ], 
        [
            0.0, 
            0.0, 
            0.0, 
            1.0
        ]
    ], 
    "dcmmeta_shape": [
        68, 
        68, 
        36
    ], 
    "dcmmeta_slice_dim": 2, 
    "dcmmeta_version": 0.6, 
    "global": {
        "const": {
            "AcquisitionMatrix": [
                68, 
                0, 
                0, 
                68
            ], 
            "AcquisitionNumber": 1, 
            "AngioFlag": "N", 
            "BitsAllocated": 16, 
            "BitsStored": 12, 
            "Columns": 68, 
            "EchoNumbers": 2, 
            "EchoTime": 7.65, 
            "EchoTrainLength": 1, 
            "FlipAngle": 60.0, 
            "HighBit": 11, 
            "ImageOrientationPatient": [
                0.9998766325819, 
                0.003023974402, 
                0.01541347447836, 
                2.8562889e-08, 
                0.98129266351939, 
                -0.1925219689361
            ], 
            "ImageType": [
                "ORIGINAL", 
                "PRIMARY", 
                "P", 
                "ND"
            ], 
            "ImagedNucleus": "1H", 
            "ImagingFrequency": 123.218407, 
            "InPlanePhaseEncodingDirection": "COL", 
            "MRAcquisitionType": "2D", 
            "MagneticFieldStrength": 3.0, 
            "Manufacturer": "SIEMENS", 
            "ManufacturerModelName": "TrioTim", 
            "Modality": "MR", 
            "NumberOfAverages": 1.0, 
            "NumberOfPhaseEncodingSteps": 68, 
            "PercentPhaseFieldOfView": 100.0, 
            "PercentSampling": 100.0, 
            "PerformedProcedureStepStartTime": "152613.890000", 
            "PhotometricInterpretation": "MONOCHROME2", 
            "PixelBandwidth": 261.0, 
            "PixelRepresentation": 0, 
            "PixelSpacing": [
                3.0, 
                3.0
            ], 
            "ProtocolName": "gre_field_mapping", 
            "RepetitionTime": 402.0, 
            "RescaleIntercept": -4096.0, 
            "RescaleSlope": 2.0, 
            "RescaleType": "US", 
            "Rows": 68, 
            "SAR": 0.26741304475143, 
            "SamplesPerPixel": 1, 
            "ScanningSequence": "GR", 
            "SequenceName": "*fm2d2r", 
            "SequenceVariant": "SP", 
            "SeriesDescription": "gre_field_mapping", 
            "SeriesNumber": 4, 
            "SeriesTime": "154617.671000", 
            "SliceThickness": 2.5, 
            "SoftwareVersions": "syngo MR B19", 
            "SpacingBetweenSlices": 3.0, 
            "SpecificCharacterSet": "ISO_IR 100", 
            "StudyID": "1", 
            "StudyTime": "152613.859000", 
            "TransmitCoilName": "Body", 
            "VariableFlipAngleFlag": "N", 
            "WindowCenterWidthExplanation": "Algo1", 
            "dBdt": 0.0
        }, 
        "slices": {
            "AcquisitionTime": [
                "154518.937500", 
                "154518.735000", 
                "154518.947500", 
                "154518.747500", 
                "154518.960000", 
                "154518.757500", 
                "154518.970000", 
                "154518.767500", 
                "154518.982500", 
                "154518.780000", 
                "154518.992500", 
                "154518.790000", 
                "154519.005000", 
                "154518.802500", 
                "154519.015000", 
                "154518.812500", 
                "154519.027500", 
                "154518.825000", 
                "154519.037500", 
                "154518.835000", 
                "154519.050000", 
                "154518.847500", 
                "154519.060000", 
                "154518.857500", 
                "154519.070000", 
                "154518.870000", 
                "154519.082500", 
                "154518.880000", 
                "154519.092500", 
                "154518.892500", 
                "154519.105000", 
                "154518.902500", 
                "154519.115000", 
                "154518.915000", 
                "154519.127500", 
                "154518.925000"
            ], 
            "ContentTime": [
                "154617.765000", 
                "154617.671000", 
                "154617.781000", 
                "154617.687000", 
                "154619.156000", 
                "154617.703000", 
                "154619.156000", 
                "154617.703000", 
                "154619.171000", 
                "154617.703000", 
                "154619.171000", 
                "154617.703000", 
                "154619.171000", 
                "154617.718000", 
                "154619.171000", 
                "154617.718000", 
                "154619.171000", 
                "154617.734000", 
                "154619.171000", 
                "154617.734000", 
                "154619.171000", 
                "154617.734000", 
                "154619.171000", 
                "154617.750000", 
                "154619.187000", 
                "154617.750000", 
                "154619.187000", 
                "154617.750000", 
                "154619.187000", 
                "154617.750000", 
                "154619.187000", 
                "154617.765000", 
                "154619.187000", 
                "154617.765000", 
                "154619.187000", 
                "154617.765000"
            ], 
            "CsaImage.ICE_Dims": [
                "X_2_1_1_1_1_1_19_1_1_1_1_54", 
                "X_2_1_1_1_1_1_1_1_1_2_1_54", 
                "X_2_1_1_1_1_1_20_1_1_3_1_54", 
                "X_2_1_1_1_1_1_2_1_1_4_1_54", 
                "X_2_1_1_1_1_1_21_1_1_5_1_54", 
                "X_2_1_1_1_1_1_3_1_1_6_1_54", 
                "X_2_1_1_1_1_1_22_1_1_7_1_54", 
                "X_2_1_1_1_1_1_4_1_1_8_1_54", 
                "X_2_1_1_1_1_1_23_1_1_9_1_54", 
                "X_2_1_1_1_1_1_5_1_1_10_1_54", 
                "X_2_1_1_1_1_1_24_1_1_11_1_54", 
                "X_2_1_1_1_1_1_6_1_1_12_1_54", 
                "X_2_1_1_1_1_1_25_1_1_13_1_54", 
                "X_2_1_1_1_1_1_7_1_1_14_1_54", 
                "X_2_1_1_1_1_1_26_1_1_15_1_54", 
                "X_2_1_1_1_1_1_8_1_1_16_1_54", 
                "X_2_1_1_1_1_1_27_1_1_17_1_54", 
                "X_2_1_1_1_1_1_9_1_1_18_1_54", 
                "X_2_1_1_1_1_1_28_1_1_19_1_54", 
                "X_2_1_1_1_1_1_10_1_1_20_1_54", 
                "X_2_1_1_1_1_1_29_1_1_21_1_54", 
                "X_2_1_1_1_1_1_11_1_1_22_1_54", 
                "X_2_1_1_1_1_1_30_1_1_23_1_54", 
                "X_2_1_1_1_1_1_12_1_1_24_1_54", 
                "X_2_1_1_1_1_1_31_1_1_25_1_54", 
                "X_2_1_1_1_1_1_13_1_1_26_1_54", 
                "X_2_1_1_1_1_1_32_1_1_27_1_54", 
                "X_2_1_1_1_1_1_14_1_1_28_1_54", 
                "X_2_1_1_1_1_1_33_1_1_29_1_54", 
                "X_2_1_1_1_1_1_15_1_1_30_1_54", 
                "X_2_1_1_1_1_1_34_1_1_31_1_54", 
                "X_2_1_1_1_1_1_16_1_1_32_1_54", 
                "X_2_1_1_1_1_1_35_1_1_33_1_54", 
                "X_2_1_1_1_1_1_17_1_1_34_1_54", 
                "X_2_1_1_1_1_1_36_1_1_35_1_54", 
                "X_2_1_1_1_1_1_18_1_1_36_1_54"
            ], 
            "CsaImage.ProtocolSliceNumber": [
                0, 
                1, 
                2, 
                3, 
                4, 
                5, 
                6, 
                7, 
                8, 
                9, 
                10, 
                11, 
                12, 
                13, 
                14, 
                15, 
                16, 
                17, 
                18, 
                19, 
                20, 
                21, 
                22, 
                23, 
                24, 
                25, 
                26, 
                27, 
                28, 
                29, 
                30, 
                31, 
                32, 
                33, 
                34, 
                35
            ], 
            "CsaImage.SliceMeasurementDuration": [
                54082.5, 
                54085.0, 
                54085.0, 
                54082.5, 
                54082.5, 
                54085.0, 
                54085.0, 
                54085.0, 
                54082.5, 
                54085.0, 
                54085.0, 
                54085.0, 
                54082.5, 
                54085.0, 
                54085.0, 
                54085.0, 
                54082.5, 
                54085.0, 
                54085.0, 
                54085.0, 
                54082.5, 
                54085.0, 
                54085.0, 
                54085.0, 
                54085.0, 
                54085.0, 
                54085.0, 
                54085.0, 
                54085.0, 
                54085.0, 
                54085.0, 
                54085.0, 
                54085.0, 
                54082.5, 
                54085.0, 
                54085.0
            ], 
            "CsaImage.SlicePosition_PCS": [
                [
                    -101.8407514, 
                    -113.89628401, 
                    -13.10745897
                ], 
                [
                    -101.88787335, 
                    -113.31878939, 
                    -10.1639451
                ], 
                [
                    -101.9349953, 
                    -112.74129476, 
                    -7.22042932
                ], 
                [
                    -101.98211725, 
                    -112.16380014, 
                    -4.27691545
                ], 
                [
                    -102.02923921, 
                    -111.58630552, 
                    -1.33339968
                ], 
                [
                    -102.07636116, 
                    -111.0088109, 
                    1.61011419
                ], 
                [
                    -102.12348312, 
                    -110.43131628, 
                    4.55362997
                ], 
                [
                    -102.17060506, 
                    -109.85382166, 
                    7.4971448
                ], 
                [
                    -102.21772702, 
                    -109.27632704, 
                    10.44065914
                ], 
                [
                    -102.26484896, 
                    -108.69883241, 
                    13.38417397
                ], 
                [
                    -102.31197093, 
                    -108.12133732, 
                    16.32768891
                ], 
                [
                    -102.35909287, 
                    -107.5438427, 
                    19.27120373
                ], 
                [
                    -102.40621481, 
                    -106.96634807, 
                    22.21471844
                ], 
                [
                    -102.45333679, 
                    -106.38885345, 
                    25.15823326
                ], 
                [
                    -102.50045873, 
                    -105.81135883, 
                    28.10174856
                ], 
                [
                    -102.54758067, 
                    -105.23386421, 
                    31.04526339
                ], 
                [
                    -102.59470261, 
                    -104.65636959, 
                    33.98877821
                ], 
                [
                    -102.64182455, 
                    -104.07887497, 
                    36.93229208
                ], 
                [
                    -102.68894656, 
                    -103.50138035, 
                    39.87580786
                ], 
                [
                    -102.7360685, 
                    -102.92388573, 
                    42.81932173
                ], 
                [
                    -102.78319044, 
                    -102.3463911, 
                    45.76283751
                ], 
                [
                    -102.83031238, 
                    -101.76889636, 
                    48.70635138
                ], 
                [
                    -102.87743432, 
                    -101.19140174, 
                    51.64986715
                ], 
                [
                    -102.92455627, 
                    -100.61390711, 
                    54.59338293
                ], 
                [
                    -102.97167827, 
                    -100.03641247, 
                    57.5368949
                ], 
                [
                    -103.01880021, 
                    -99.45891782, 
                    60.48041067
                ], 
                [
                    -103.06592209, 
                    -98.88142314, 
                    63.42392645
                ], 
                [
                    -103.11304409, 
                    -98.30392852, 
                    66.36744223
                ], 
                [
                    -103.1601661, 
                    -97.7264339, 
                    69.31095419
                ], 
                [
                    -103.20728798, 
                    -97.14893927, 
                    72.25446997
                ], 
                [
                    -103.25440998, 
                    -96.57144465, 
                    75.19798575
                ], 
                [
                    -103.30153186, 
                    -95.99394979, 
                    78.14150152
                ], 
                [
                    -103.34865386, 
                    -95.41645517, 
                    81.08501349
                ], 
                [
                    -103.39577586, 
                    -94.83896055, 
                    84.02852926
                ], 
                [
                    -103.44289775, 
                    -94.26146593, 
                    86.97204123
                ], 
                [
                    -103.49001975, 
                    -93.68397131, 
                    89.91556082
                ]
            ], 
            "CsaImage.TimeAfterStart": [
                0.6075, 
                0.405, 
                0.6175, 
                0.4175, 
                0.63, 
                0.4275, 
                0.64, 
                0.44, 
                0.6525, 
                0.45, 
                0.6625, 
                0.4625, 
                0.675, 
                0.4725, 
                0.685, 
                0.485, 
                0.6975, 
                0.495, 
                0.7075, 
                0.5075, 
                0.72, 
                0.5175, 
                0.73, 
                0.53, 
                0.7425, 
                0.54, 
                0.7525, 
                0.5525, 
                0.765, 
                0.5625, 
                0.775, 
                0.575, 
                0.7875, 
                0.585, 
                0.7975, 
                0.5975
            ], 
            "ImagePositionPatient": [
                [
                    -101.84075140496, 
                    -113.89628400646, 
                    -13.107458971199
                ], 
                [
                    -101.887873347, 
                    -113.31878938518, 
                    -10.163945100959
                ], 
                [
                    -101.93499530022, 
                    -112.7412947639, 
                    -7.2204293233715
                ], 
                [
                    -101.9821172539, 
                    -112.16380014263, 
                    -4.2769154531323
                ], 
                [
                    -102.02923920666, 
                    -111.58630552135, 
                    -1.3333996755444
                ], 
                [
                    -102.07636115988, 
                    -111.00881090007, 
                    1.6101141946949
                ], 
                [
                    -102.12348311682, 
                    -110.4313162788, 
                    4.5536299722828
                ], 
                [
                    -102.17060505886, 
                    -109.85382165752, 
                    7.4971447961963
                ], 
                [
                    -102.21772701581, 
                    -109.27632703624, 
                    10.440659143273
                ], 
                [
                    -102.26484895785, 
                    -108.69883241497, 
                    13.384173967186
                ], 
                [
                    -102.3119709297, 
                    -108.12133731685, 
                    16.327688910309
                ], 
                [
                    -102.35909287174, 
                    -107.54384269558, 
                    19.271203734223
                ], 
                [
                    -102.40621481378, 
                    -106.9663480743, 
                    22.214718438927
                ], 
                [
                    -102.45333678563, 
                    -106.38885345302, 
                    25.158233262841
                ], 
                [
                    -102.50045872767, 
                    -105.81135883175, 
                    28.101748563591
                ], 
                [
                    -102.54758066972, 
                    -105.23386421047, 
                    31.045263387505
                ], 
                [
                    -102.59470261176, 
                    -104.65636958919, 
                    33.988778211418
                ], 
                [
                    -102.6418245538, 
                    -104.07887496791, 
                    36.932292081658
                ], 
                [
                    -102.68894655545, 
                    -103.50138034664, 
                    39.875807859246
                ], 
                [
                    -102.73606849749, 
                    -102.92388572536, 
                    42.819321729485
                ], 
                [
                    -102.78319043954, 
                    -102.34639110408, 
                    45.762837507073
                ], 
                [
                    -102.83031238158, 
                    -101.7688963636, 
                    48.706351377312
                ], 
                [
                    -102.87743432362, 
                    -101.19140174232, 
                    51.6498671549
                ], 
                [
                    -102.92455626567, 
                    -100.61390710614, 
                    54.593382932488
                ], 
                [
                    -102.97167826732, 
                    -100.03641246997, 
                    57.536894895378
                ], 
                [
                    -103.01880020936, 
                    -99.458917818886, 
                    60.480410672966
                ], 
                [
                    -103.0659220918, 
                    -98.881423138005, 
                    63.423926450554
                ], 
                [
                    -103.11304409345, 
                    -98.303928516728, 
                    66.367442228142
                ], 
                [
                    -103.16016609509, 
                    -97.726433895451, 
                    69.310954191033
                ], 
                [
                    -103.20728797753, 
                    -97.148939274174, 
                    72.254469968621
                ], 
                [
                    -103.25440997918, 
                    -96.571444652897, 
                    75.197985746209
                ], 
                [
                    -103.30153186162, 
                    -95.993949793202, 
                    78.141501523796
                ], 
                [
                    -103.34865386327, 
                    -95.416455171925, 
                    81.085013486687
                ], 
                [
                    -103.39577586491, 
                    -94.838960550648, 
                    84.028529264275
                ], 
                [
                    -103.44289774735, 
                    -94.261465929371, 
                    86.972041227166
                ], 
                [
                    -103.490019749, 
                    -93.683971308094, 
                    89.915560819451
                ]
            ], 
            "InstanceCreationTime": [
                "154617.765000", 
                "154617.671000", 
                "154617.781000", 
                "154617.687000", 
                "154619.156000", 
                "154617.703000", 
                "154619.156000", 
                "154617.703000", 
                "154619.171000", 
                "154617.703000", 
                "154619.171000", 
                "154617.703000", 
                "154619.171000", 
                "154617.718000", 
                "154619.171000", 
                "154617.718000", 
                "154619.171000", 
                "154617.734000", 
                "154619.171000", 
                "154617.734000", 
                "154619.171000", 
                "154617.734000", 
                "154619.171000", 
                "154617.750000", 
                "154619.187000", 
                "154617.750000", 
                "154619.187000", 
                "154617.750000", 
                "154619.187000", 
                "154617.750000", 
                "154619.187000", 
                "154617.765000", 
                "154619.187000", 
                "154617.765000", 
                "154619.187000", 
                "154617.765000"
            ], 
            "InstanceNumber": [
                1, 
                2, 
                3, 
                4, 
                5, 
                6, 
                7, 
                8, 
                9, 
                10, 
                11, 
                12, 
                13, 
                14, 
                15, 
                16, 
                17, 
                18, 
                19, 
                20, 
                21, 
                22, 
                23, 
                24, 
                25, 
                26, 
                27, 
                28, 
                29, 
                30, 
                31, 
                32, 
                33, 
                34, 
                35, 
                36
            ], 
            "LargestImagePixelValue": [
                4087, 
                4094, 
                4084, 
                4092, 
                4083, 
                4085, 
                4092, 
                4092, 
                4089, 
                4068, 
                4093, 
                4087, 
                4084, 
                4094, 
                4092, 
                4091, 
                4094, 
                4089, 
                4092, 
                4073, 
                4085, 
                4091, 
                4094, 
                4094, 
                4094, 
                4094, 
                4088, 
                4092, 
                4094, 
                4092, 
                4088, 
                4094, 
                4092, 
                4088, 
                4089, 
                4094
            ], 
            "SliceLocation": [
                -33.185853951915, 
                -30.185854882029, 
                -27.185853940531, 
                -24.185854870462, 
                -21.185853928972, 
                -18.18585485891, 
                -15.185853917354, 
                -12.18585391175, 
                -9.1858543737708, 
                -6.1858543681667, 
                -3.1858541533395, 
                -0.1858541477354, 
                2.814145740904, 
                5.8141457469762, 
                8.8141462204394, 
                11.814146226043, 
                14.814146231648, 
                17.814145301533, 
                20.814146243792, 
                23.814145313678, 
                26.814146255, 
                29.814145347834, 
                32.814146289156, 
                35.814147233347, 
                38.814144435601, 
                41.81414538266, 
                44.81414633452, 
                47.814147276778, 
                50.814144476164, 
                53.81414541655, 
                56.814146358809, 
                59.81414734509, 
                62.814144544476, 
                65.814145486734, 
                68.814142684248, 
                71.814147369379
            ], 
            "SmallestImagePixelValue": [
                3, 
                7, 
                8, 
                2, 
                5, 
                0, 
                1, 
                0, 
                3, 
                9, 
                23, 
                0, 
                2, 
                7, 
                10, 
                6, 
                2, 
                4, 
                0, 
                9, 
                1, 
                2, 
                24, 
                15, 
                2, 
                1, 
                0, 
                1, 
                11, 
                2, 
                1, 
                14, 
                0, 
                3, 
                1, 
                2
            ], 
            "WindowCenter": [
                -216.0, 
                -262.0, 
                -198.0, 
                -214.0, 
                -122.0, 
                -158.0, 
                -188.0, 
                -198.0, 
                -348.0, 
                -194.0, 
                -134.0, 
                -76.0, 
                -92.0, 
                -228.0, 
