{
    "AcquisitionMatrixPE": 68, 
    "AcquisitionNumber": 1, 
    "AcquisitionTime": "11:54:56.082500", 
    "BaseResolution": 68, 
    "CoilString": "C:HEA;HEP", 
    "ConversionSoftware": "dcm2niix", 
    "ConversionSoftwareVersion": "v1.0.20190902", 
    "DeviceSerialNumber": "35450", 
    "DwellTime": 2.82e-05, 
    "EchoNumber": 2, 
    "EchoTime": 0.00765, 
    "EchoTime1": 0.00519, 
    "EchoTime2": 0.00765, 
    "FlipAngle": 60, 
    "ImageOrientationPatientDICOM": [
        0.999123, 
        0.00270232, 
        0.0417884, 
        1.21929e-08, 
        0.997916, 
        -0.0645323
    ], 
    "ImageType": [
        "ORIGINAL", 
        "PRIMARY", 
        "P", 
        "ND"
    ], 
    "ImagingFrequency": 123.219, 
    "InPlanePhaseEncodingDirectionDICOM": "COL", 
    "InstitutionAddress": "Univeristy_Ave._197_Newark_North_East_US_07102-1814", 
    "InstitutionName": "RUBIC", 
    "InstitutionalDepartmentName": "Department", 
    "IntendedFor": [
        "func/sub-212_task-rest_run-02_bold.nii.gz", 
        "func/sub-212_task-rest_run-01_bold.nii.gz", 
        "func/sub-212_task-cardgame_run-01_bold.nii.gz", 
        "func/sub-212_task-cardgame_run-02_bold.nii.gz"
    ], 
    "MRAcquisitionType": "2D", 
    "MagneticFieldStrength": 3, 
    "Manufacturer": "Siemens", 
    "ManufacturersModelName": "TrioTim", 
    "Modality": "MR", 
    "PartialFourier": 1, 
    "PatientPosition": "HFS", 
    "PercentPhaseFOV": 100, 
    "PhaseEncodingDirection": "j-", 
    "PhaseEncodingSteps": 68, 
    "PhaseResolution": 1, 
    "PixelBandwidth": 261, 
    "ProcedureStepDescription": "Krekelberg_David", 
    "ProtocolName": "gre_field_mapping", 
    "PulseSequenceDetails": "%SiemensSeq%_gre_field_mapping", 
    "ReceiveCoilName": "HeadMatrix", 
    "ReconMatrixPE": 68, 
    "RepetitionTime": 0.402, 
    "SAR": 0.230347, 
    "ScanningSequence": "GR", 
    "SequenceName": "_fm2d2r", 
    "SequenceVariant": "SP", 
    "SeriesDescription": "gre_field_mapping", 
    "SeriesNumber": 5, 
    "ShimSetting": [
        1999, 
        -739, 
        -7570, 
        574, 
        179, 
        -12, 
        -404, 
        -100
    ], 
    "SliceThickness": 2.5, 
    "SliceTiming": [
        0.20312, 
        0, 
        0.21094, 
        0.00781, 
        0.21875, 
        0.02344, 
        0.23438, 
        0.03125, 
        0.24219, 
        0.03906, 
        0.25781, 
        0.05469, 
        0.26562, 
        0.0625, 
        0.28125, 
        0.07812, 
        0.28906, 
        0.08594, 
        0.30469, 
        0.10156, 
        0.3125, 
        0.10938, 
        0.32812, 
        0.125, 
        0.33594, 
        0.13281, 
        0.34375, 
        0.14844, 
        0.35938, 
        0.15625, 
        0.36719, 
        0.16406, 
        0.38281, 
        0.17969, 
        0.39062, 
        0.1875
    ], 
    "SoftwareVersions": "syngo_MR_B19", 
    "SpacingBetweenSlices": 3, 
    "StationName": "MRC35450", 
    "TxRefAmp": 315.623, 
    "dcmmeta_affine": [
        [
            -2.997368574142456, 
            3.6578750695070994e-08, 
            0.12562692165374756, 
            97.00019073486328
        ], 
        [
            -0.008106960915029049, 
            2.993746757507324, 
            -0.19342803955078125, 
            -68.02169036865234
        ], 
        [
            0.12536509335041046, 
            0.19359691441059113, 
            2.9911270141601562, 
            -37.233463287353516
        ], 
        [
            0.0, 
            0.0, 
            0.0, 
            1.0
        ]
    ], 
    "dcmmeta_reorient_transform": [
        [
            0.0, 
            -1.0, 
            0.0, 
            67.0
        ], 
        [
            1.0, 
            0.0, 
            0.0, 
            0.0
        ], 
        [
            0.0, 
            0.0, 
            -1.0, 
            35.0
        ], 
        [
            0.0, 
            0.0, 
            0.0, 
            1.0
        ]
    ], 
    "dcmmeta_shape": [
        68, 
        68, 
        36
    ], 
    "dcmmeta_slice_dim": 2, 
    "dcmmeta_version": 0.6, 
    "global": {
        "const": {
            "AcquisitionMatrix": [
                68, 
                0, 
                0, 
                68
            ], 
            "AcquisitionNumber": 1, 
            "AngioFlag": "N", 
            "BitsAllocated": 16, 
            "BitsStored": 12, 
            "Columns": 68, 
            "EchoNumbers": 2, 
            "EchoTime": 7.65, 
            "EchoTrainLength": 1, 
            "FlipAngle": 60.0, 
            "HighBit": 11, 
            "ImageOrientationPatient": [
                0.99912283021673, 
                0.00270232015781, 
                0.04178836686777, 
                1.2192917e-08, 
                0.99791561842447, 
                -0.064532305898
            ], 
            "ImageType": [
                "ORIGINAL", 
                "PRIMARY", 
                "P", 
                "ND"
            ], 
            "ImagedNucleus": "1H", 
            "ImagingFrequency": 123.218553, 
            "InPlanePhaseEncodingDirection": "COL", 
            "MRAcquisitionType": "2D", 
            "MagneticFieldStrength": 3.0, 
            "Manufacturer": "SIEMENS", 
            "ManufacturerModelName": "TrioTim", 
            "Modality": "MR", 
            "NumberOfAverages": 1.0, 
            "NumberOfPhaseEncodingSteps": 68, 
            "PercentPhaseFieldOfView": 100.0, 
            "PercentSampling": 100.0, 
            "PerformedProcedureStepStartTime": "113511.406000", 
            "PhotometricInterpretation": "MONOCHROME2", 
            "PixelBandwidth": 261.0, 
            "PixelRepresentation": 0, 
            "PixelSpacing": [
                3.0, 
                3.0
            ], 
            "ProtocolName": "gre_field_mapping", 
            "RepetitionTime": 402.0, 
            "RescaleIntercept": -4096.0, 
            "RescaleSlope": 2.0, 
            "RescaleType": "US", 
            "Rows": 68, 
            "SAR": 0.23034714986314, 
            "SamplesPerPixel": 1, 
            "ScanningSequence": "GR", 
            "SequenceName": "*fm2d2r", 
            "SequenceVariant": "SP", 
            "SeriesDescription": "gre_field_mapping", 
            "SeriesNumber": 5, 
            "SeriesTime": "115556.859000", 
            "SliceThickness": 2.5, 
            "SoftwareVersions": "syngo MR B19", 
            "SpacingBetweenSlices": 3.0, 
            "SpecificCharacterSet": "ISO_IR 100", 
            "StudyID": "1", 
            "StudyTime": "113511.375000", 
            "TransmitCoilName": "Body", 
            "VariableFlipAngleFlag": "N", 
            "WindowCenterWidthExplanation": "Algo1", 
            "dBdt": 0.0
        }, 
        "slices": {
            "AcquisitionTime": [
                "115456.082500", 
                "115455.882500", 
                "115456.095000", 
                "115455.892500", 
                "115456.105000", 
                "115455.905000", 
                "115456.117500", 
                "115455.915000", 
                "115456.127500", 
                "115455.925000", 
                "115456.140000", 
                "115455.937500", 
                "115456.150000", 
                "115455.947500", 
                "115456.162500", 
                "115455.960000", 
                "115456.172500", 
                "115455.970000", 
                "115456.185000", 
                "115455.982500", 
                "115456.195000", 
                "115455.992500", 
                "115456.207500", 
                "115456.005000", 
                "115456.217500", 
                "115456.015000", 
                "115456.230000", 
                "115456.027500", 
                "115456.240000", 
                "115456.037500", 
                "115456.250000", 
                "115456.050000", 
                "115456.262500", 
                "115456.060000", 
                "115456.272500", 
                "115456.072500"
            ], 
            "ContentTime": [
                "115556.906000", 
                "115556.859000", 
                "115556.906000", 
                "115556.875000", 
                "115556.906000", 
                "115556.875000", 
                "115556.921000", 
                "115556.875000", 
                "115556.921000", 
                "115556.875000", 
                "115556.921000", 
                "115556.875000", 
                "115556.921000", 
                "115556.875000", 
                "115556.921000", 
                "115556.875000", 
                "115556.921000", 
                "115556.875000", 
                "115556.921000", 
                "115556.890000", 
                "115556.921000", 
                "115556.890000", 
                "115556.921000", 
                "115556.890000", 
                "115556.937000", 
                "115556.890000", 
                "115556.937000", 
                "115556.890000", 
                "115556.937000", 
                "115556.906000", 
                "115556.937000", 
                "115556.906000", 
                "115556.937000", 
                "115556.906000", 
                "115556.937000", 
                "115556.906000"
            ], 
            "CsaImage.ICE_Dims": [
                "X_2_1_1_1_1_1_19_1_1_1_1_136", 
                "X_2_1_1_1_1_1_1_1_1_2_1_136", 
                "X_2_1_1_1_1_1_20_1_1_3_1_136", 
                "X_2_1_1_1_1_1_2_1_1_4_1_136", 
                "X_2_1_1_1_1_1_21_1_1_5_1_136", 
                "X_2_1_1_1_1_1_3_1_1_6_1_136", 
                "X_2_1_1_1_1_1_22_1_1_7_1_136", 
                "X_2_1_1_1_1_1_4_1_1_8_1_136", 
                "X_2_1_1_1_1_1_23_1_1_9_1_136", 
                "X_2_1_1_1_1_1_5_1_1_10_1_136", 
                "X_2_1_1_1_1_1_24_1_1_11_1_136", 
                "X_2_1_1_1_1_1_6_1_1_12_1_136", 
                "X_2_1_1_1_1_1_25_1_1_13_1_136", 
                "X_2_1_1_1_1_1_7_1_1_14_1_136", 
                "X_2_1_1_1_1_1_26_1_1_15_1_136", 
                "X_2_1_1_1_1_1_8_1_1_16_1_136", 
                "X_2_1_1_1_1_1_27_1_1_17_1_136", 
                "X_2_1_1_1_1_1_9_1_1_18_1_136", 
                "X_2_1_1_1_1_1_28_1_1_19_1_136", 
                "X_2_1_1_1_1_1_10_1_1_20_1_136", 
                "X_2_1_1_1_1_1_29_1_1_21_1_136", 
                "X_2_1_1_1_1_1_11_1_1_22_1_136", 
                "X_2_1_1_1_1_1_30_1_1_23_1_136", 
                "X_2_1_1_1_1_1_12_1_1_24_1_136", 
                "X_2_1_1_1_1_1_31_1_1_25_1_136", 
                "X_2_1_1_1_1_1_13_1_1_26_1_136", 
                "X_2_1_1_1_1_1_32_1_1_27_1_136", 
                "X_2_1_1_1_1_1_14_1_1_28_1_136", 
                "X_2_1_1_1_1_1_33_1_1_29_1_136", 
                "X_2_1_1_1_1_1_15_1_1_30_1_136", 
                "X_2_1_1_1_1_1_34_1_1_31_1_136", 
                "X_2_1_1_1_1_1_16_1_1_32_1_136", 
                "X_2_1_1_1_1_1_35_1_1_33_1_136", 
                "X_2_1_1_1_1_1_17_1_1_34_1_136", 
                "X_2_1_1_1_1_1_36_1_1_35_1_136", 
                "X_2_1_1_1_1_1_18_1_1_36_1_136"
            ], 
            "CsaImage.ProtocolSliceNumber": [
                0, 
                1, 
                2, 
                3, 
                4, 
                5, 
                6, 
                7, 
                8, 
                9, 
                10, 
                11, 
                12, 
                13, 
                14, 
                15, 
                16, 
                17, 
                18, 
                19, 
                20, 
                21, 
                22, 
                23, 
                24, 
                25, 
                26, 
                27, 
                28, 
                29, 
                30, 
                31, 
                32, 
                33, 
                34, 
                35
            ], 
            "CsaImage.SliceMeasurementDuration": [
                54085.0, 
                54082.5, 
                54082.5, 
                54085.0, 
                54085.0, 
                54082.5, 
                54082.5, 
                54085.0, 
                54085.0, 
                54085.0, 
                54082.5, 
                54085.0, 
                54085.0, 
                54085.0, 
                54082.5, 
                54085.0, 
                54085.0, 
                54085.0, 
                54082.5, 
                54085.0, 
                54085.0, 
                54085.0, 
                54082.5, 
                54085.0, 
                54085.0, 
                54085.0, 
                54082.5, 
                54085.0, 
                54085.0, 
                54085.0, 
                54085.0, 
                54085.0, 
                54085.0, 
                54085.0, 
                54085.0, 
                54082.5
            ], 
            "CsaImage.SlicePosition_PCS": [
                [
                    -97.00019343, 
                    -132.55931422, 
                    -24.26225628
                ], 
                [
                    -97.12582047, 
                    -132.36588618, 
                    -21.2711369
                ], 
                [
                    -97.25144751, 
                    -132.17246005, 
                    -18.2800156
                ], 
                [
                    -97.37707455, 
                    -131.97903201, 
                    -15.28889431
                ], 
                [
                    -97.50270159, 
                    -131.78560588, 
                    -12.29777397
                ], 
                [
                    -97.62832864, 
                    -131.59217784, 
                    -9.30665268
                ], 
                [
                    -97.7539552, 
                    -131.3987517, 
                    -6.31553234
                ], 
                [
                    -97.87958224, 
                    -131.20532367, 
                    -3.32441105
                ], 
                [
                    -98.00520928, 
                    -131.01189753, 
                    -0.33329047
                ], 
                [
                    -98.13083632, 
                    -130.81846949, 
                    2.65783037
                ], 
                [
                    -98.25646312, 
                    -130.62504336, 
                    5.64895116
                ], 
                [
                    -98.38209017, 
                    -130.43161532, 
                    8.64007221
                ], 
                [
                    -98.50771721, 
                    -130.23818919, 
                    11.63119255
                ], 
                [
                    -98.63334401, 
                    -130.04476115, 
                    14.62231384
                ], 
                [
                    -98.75897105, 
                    -129.85133502, 
                    17.61343418
                ], 
                [
                    -98.88459809, 
                    -129.65790698, 
                    20.60455547
                ], 
                [
                    -99.01022489, 
                    -129.46448085, 
                    23.59567676
                ], 
                [
                    -99.13585193, 
                    -129.27105281, 
                    26.58679615
                ], 
                [
                    -99.26147897, 
                    -129.07762667, 
                    29.57791744
                ], 
                [
                    -99.38710578, 
                    -128.88419863, 
                    32.56903873
                ], 
                [
                    -99.51273282, 
                    -128.6907725, 
                    35.56015812
                ], 
                [
                    -99.63835986, 
                    -128.49734446, 
                    38.55128132
                ], 
                [
                    -99.76398666, 
                    -128.30391833, 
                    41.5424007
                ], 
                [
                    -99.8896137, 
                    -128.11049029, 
                    44.5335239
                ], 
                [
                    -100.01524074, 
                    -127.91706416, 
                    47.52464329
                ], 
                [
                    -100.14086766, 
                    -127.72363612, 
                    50.51576267
                ], 
                [
                    -100.26649459, 
                    -127.53020999, 
                    53.50688587
                ], 
                [
                    -100.39212163, 
                    -127.33678195, 
                    56.49800526
                ], 
                [
                    -100.51774855, 
                    -127.14335582, 
                    59.48912464
                ], 
                [
                    -100.64337547, 
                    -126.94992778, 
                    62.48024784
                ], 
                [
                    -100.76900251, 
                    -126.75650164, 
                    65.47136722
                ], 
                [
                    -100.89462943, 
                    -126.5630736, 
                    68.46249042
                ], 
                [
                    -101.02025635, 
                    -126.36964747, 
                    71.45360981
                ], 
                [
                    -101.14588334, 
                    -126.17621943, 
                    74.44472919
                ], 
                [
                    -101.27151032, 
                    -125.9827933, 
                    77.43584858
                ], 
                [
                    -101.39713724, 
                    -125.78936526, 
                    80.42697559
                ]
            ], 
            "CsaImage.TimeAfterStart": [
                0.61, 
                0.4075, 
                0.62, 
                0.4175, 
                0.6325, 
                0.43, 
                0.6425, 
                0.44, 
                0.6525, 
                0.4525, 
                0.665, 
                0.4625, 
                0.675, 
                0.475, 
                0.6875, 
                0.485, 
                0.6975, 
                0.4975, 
                0.71, 
                0.5075, 
                0.72, 
                0.52, 
                0.7325, 
                0.53, 
                0.7425, 
                0.5425, 
                0.755, 
                0.5525, 
                0.765, 
                0.565, 
                0.7775, 
                0.575, 
                0.7875, 
                0.5875, 
                0.8, 
                0.5975
            ], 
            "ImagePositionPatient": [
                [
                    -97.000193431338, 
                    -132.55931422026, 
                    -24.262256280443
                ], 
                [
                    -97.125820472201, 
                    -132.36588618071, 
                    -21.271136895677
                ], 
                [
                    -97.251447513064, 
                    -132.1724600485, 
                    -18.280015603563
                ], 
                [
                    -97.377074553927, 
                    -131.97903200895, 
                    -15.288894311448
                ], 
                [
                    -97.50270159479, 
                    -131.78560587675, 
                    -12.297773973009
                ], 
                [
                    -97.628328635653, 
                    -131.5921778372, 
                    -9.3066526808943
                ], 
                [
                    -97.753955199679, 
                    -131.398751705, 
                    -6.3155323424543
                ], 
                [
                    -97.879582240542, 
                    -131.20532366545, 
                    -3.3244110503401
                ], 
                [
                    -98.005209281405, 
                    -131.01189753324, 
                    -0.3332904734816
                ], 
                [
                    -98.130836322268, 
                    -130.81846949369, 
                    2.6578303715978
                ], 
                [
                    -98.256463124713, 
                    -130.62504336149, 
                    5.6489511570726
                ], 
                [
                    -98.382090165576, 
                    -130.43161532194, 
                    8.6400722107683
                ], 
                [
                    -98.507717206439, 
                    -130.23818918974, 
                    11.631192549208
                ], 
                [
                    -98.633344008883, 
                    -130.04476115019, 
                    14.622313841323
                ], 
                [
                    -98.758971049746, 
                    -129.85133501799, 
                    17.613434179762
                ], 
                [
                    -98.884598090609, 
                    -129.65790697843, 
                    20.604555471877
                ], 
                [
                    -99.010224893054, 
                    -129.46448084623, 
                    23.595676763991
                ], 
                [
                    -99.135851933917, 
                    -129.27105280668, 
                    26.586796148757
                ], 
                [
                    -99.26147897478, 
                    -129.07762667448, 
                    29.577917440871
                ], 
                [
                    -99.387105777224, 
                    -128.88419863493, 
                    32.569038732985
                ], 
                [
                    -99.512732818087, 
                    -128.69077250273, 
                    35.560158117751
                ], 
                [
                    -99.63835985895, 
                    -128.49734446318, 
                    38.551281317214
                ], 
                [
                    -99.763986661395, 
                    -128.30391833097, 
                    41.542400701979
                ], 
                [
                    -99.889613702258, 
                    -128.11049029142, 
                    44.533523901442
                ], 
                [
                    -100.01524074312, 
                    -127.91706415922, 
                    47.524643286208
                ], 
                [
                    -100.14086766477, 
                    -127.72363611967, 
                    50.515762670973
                ], 
                [
                    -100.26649458643, 
                    -127.53020998747, 
                    53.506885870436
                ], 
                [
                    -100.39212162729, 
                    -127.33678194792, 
                    56.498005255202
                ], 
                [
                    -100.51774854895, 
                    -127.14335581572, 
                    59.489124639968
                ], 
                [
                    -100.6433754706, 
                    -126.94992777616, 
                    62.48024783943
                ], 
                [
                    -100.76900251146, 
                    -126.75650164396, 
                    65.471367224196
                ], 
                [
                    -100.89462943312, 
                    -126.56307360441, 
                    68.462490423659
                ], 
                [
                    -101.02025635477, 
                    -126.36964747221, 
                    71.453609808425
                ], 
                [
                    -101.14588333603, 
                    -126.17621943266, 
                    74.44472919319
                ], 
                [
                    -101.27151031729, 
                    -125.98279330046, 
                    77.435848577956
                ], 
                [
                    -101.39713723894, 
                    -125.78936526091, 
                    80.426975592116
                ]
            ], 
            "InstanceCreationTime": [
                "115556.906000", 
                "115556.859000", 
                "115556.906000", 
                "115556.875000", 
                "115556.906000", 
                "115556.875000", 
                "115556.921000", 
                "115556.875000", 
                "115556.921000", 
                "115556.875000", 
                "115556.921000", 
                "115556.875000", 
                "115556.921000", 
                "115556.875000", 
                "115556.921000", 
                "115556.875000", 
                "115556.921000", 
                "115556.875000", 
                "115556.921000", 
                "115556.890000", 
                "115556.921000", 
                "115556.890000", 
                "115556.921000", 
                "115556.890000", 
                "115556.937000", 
                "115556.890000", 
                "115556.937000", 
                "115556.890000", 
                "115556.937000", 
                "115556.906000", 
                "115556.937000", 
                "115556.906000", 
                "115556.937000", 
                "115556.906000", 
                "115556.937000", 
                "115556.906000"
            ], 
            "InstanceNumber": [
                1, 
                2, 
                3, 
                4, 
                5, 
                6, 
                7, 
                8, 
                9, 
                10, 
                11, 
                12, 
                13, 
                14, 
                15, 
                16, 
                17, 
                18, 
                19, 
                20, 
                21, 
                22, 
                23, 
                24, 
                25, 
                26, 
                27, 
                28, 
                29, 
                30, 
                31, 
                32, 
                33, 
                34, 
                35, 
                36
            ], 
            "LargestImagePixelValue": [
                4092, 
                4092, 
                4093, 
                4092, 
                4088, 
                4087, 
                4087, 
                4086, 
                4094, 
                4092, 
                4089, 
                4085, 
                4091, 
                4088, 
                4078, 
                4093, 
                4094, 
                4092, 
                4089, 
                4092, 
                4092, 
                4090, 
                4090, 
                4093, 
                4093, 
                4091, 
                4086, 
                4092, 
                4092, 
                4094, 
                4094, 
                4091, 
                4094, 
                4094, 
                4094, 
                4092
            ], 
            "SliceLocation": [
                -28.675355140533, 
                -25.675356518233, 
                -22.675356117207, 
                -19.675355593204, 
                -16.67535614303, 
                -13.675355619027, 
                -10.675356188821, 
                -7.6753556648184, 
                -4.6753559769317, 
                -1.6753558986403, 
                1.3246439872612, 
                4.3246442735514, 
                7.3246437237252, 
                10.324644237744, 
                13.324643687918, 
                16.324644211921, 
                19.324644602963, 
                22.324643225262, 
                25.324643626288, 
                28.324644140307, 
                31.324642639629, 
                34.324645065336, 
                37.324643554674, 
                40.32464598038, 
                43.324644479702, 
                46.32464309701, 
                49.324645394747, 
                52.324644017047, 
                55.324642511377, 
                58.324644932091, 
                61.324643431413, 
                64.324645852128, 
                67.324644346458, 
                70.324642966262, 
                73.324641463088, 
                76.324647687209
            ], 
            "SmallestImagePixelValue": [
                5, 
                0, 
                1, 
                6, 
                7, 
                1, 
                10, 
                6, 
                21, 
                0, 
                16, 
                1, 
                19, 
                0, 
                4, 
                18, 
                4, 
                0, 
                1, 
                12, 
                1, 
                2, 
                8, 
                4, 
                3, 
                1, 
                0, 
                2, 
                2, 
                0, 
                10, 
                5, 
                0, 
                3, 
                0, 
                1
            ], 
            "WindowCenter": [
                -308.0, 
                -290.0, 
                -232.0, 
                -210.0, 
                -214.0, 
                -148.0, 
                -164.0, 
                -144.0, 
                -138.0, 
                -280.0, 
                -246.0, 
                -216.0, 
                -196.0, 
                -176.0, 
                -186.0, 
                -122.0, 
