{
  "aor": 0.0036819379844961237,
  "aqi": 0.016343245038759693,
  "bids_meta": {
    "AcquisitionMatrixPE": 68,
    "AcquisitionNumber": 1,
    "AcquisitionTime": "11:20:25.760000",
    "BandwidthPerPixelPhaseEncode": 31.289,
    "BaseResolution": 68,
    "CogAtlasID": "TODO",
    "CoilString": "C:HEA;HEP",
    "ConversionSoftware": "dcm2niix",
    "ConversionSoftwareVersion": "v1.0.20190902",
    "DerivedVendorReportedEchoSpacing": 0.000470002,
    "DeviceSerialNumber": "35450",
    "DwellTime": 3e-06,
    "EchoTime": 0.023,
    "EffectiveEchoSpacing": 0.000470002,
    "FlipAngle": 76,
    "ImageOrientationPatientDICOM": [
      0.999781,
      0.00237076,
      0.0208078,
      -1.18211e-08,
      0.993572,
      -0.113203
    ],
    "ImageType": [
      "ORIGINAL",
      "PRIMARY",
      "M",
      "ND",
      "MOSAIC"
    ],
    "ImagingFrequency": 123.219,
    "InPlanePhaseEncodingDirectionDICOM": "COL",
    "InstitutionAddress": "Univeristy_Ave._197_Newark_North_East_US_07102-1814",
    "InstitutionName": "RUBIC",
    "InstitutionalDepartmentName": "Department",
    "MRAcquisitionType": "2D",
    "MagneticFieldStrength": 3,
    "Manufacturer": "Siemens",
    "ManufacturersModelName": "TrioTim",
    "Modality": "MR",
    "PartialFourier": 1,
    "PatientPosition": "HFS",
    "PercentPhaseFOV": 100,
    "PhaseEncodingDirection": "j-",
    "PhaseEncodingSteps": 68,
    "PhaseResolution": 1,
    "PixelBandwidth": 2451,
    "ProcedureStepDescription": "Krekelberg_David",
    "ProtocolName": "ep2d_bold_CardGameEPI_2",
    "PulseSequenceDetails": "%SiemensSeq%_ep2d_bold",
    "ReceiveCoilName": "HeadMatrix",
    "ReconMatrixPE": 68,
    "RepetitionTime": 2,
    "SAR": 0.176436,
    "ScanOptions": "FS",
    "ScanningSequence": "EP",
    "SequenceName": "_epfid2d1_68",
    "SequenceVariant": "SK",
    "SeriesDescription": "ep2d_bold_CardGameEPI_2",
    "SeriesNumber": 8,
    "ShimSetting": [
      1950,
      -618,
      -7561,
      948,
      -26,
      -118,
      -633,
      -176
    ],
    "SliceThickness": 2.5,
    "SliceTiming": [
      1.9525,
      1.895,
      1.84,
      1.785,
      1.7275,
      1.6725,
      1.6175,
      1.5625,
      1.505,
      1.45,
      1.395,
      1.3375,
      1.2825,
      1.2275,
      1.17,
      1.115,
      1.06,
      1.0025,
      0.9475,
      0.8925,
      0.8375,
      0.78,
      0.725,
      0.67,
      0.6125,
      0.5575,
      0.5025,
      0.445,
      0.39,
      0.335,
      0.28,
      0.2225,
      0.1675,
      0.1125,
      0.055,
      0
    ],
    "SoftwareVersions": "syngo_MR_B19",
    "SpacingBetweenSlices": 3,
    "StationName": "MRC35450",
    "TaskName": "cardgame",
    "TotalReadoutTime": 0.0314901,
    "TxRefAmp": 332.161,
    "dataset": "<unset>",
    "dcmmeta_affine": [
      [
        -2.9993419647216797,
        -3.546322346892339e-08,
        0.06282725930213928,
        102.91205596923828
      ],
      [
        -0.007112282328307629,
        2.98071551322937,
        -0.3395351469516754,
        -68.44629669189453
      ],
      [
        0.06242339313030243,
        0.33960962295532227,
        2.9800620079040527,
        -76.3277816772461
      ],
      [
        0.0,
        0.0,
        0.0,
        1.0
      ]
    ],
    "dcmmeta_reorient_transform": [
      [
        0.0,
        -1.0,
        0.0,
        67.0
      ],
      [
        1.0,
        0.0,
        0.0,
        0.0
      ],
      [
        0.0,
        0.0,
        1.0,
        0.0
      ],
      [
        0.0,
        0.0,
        0.0,
        1.0
      ]
    ],
    "dcmmeta_shape": [
      68,
      68,
      36,
      258
    ],
    "dcmmeta_slice_dim": 2,
    "dcmmeta_version": 0.6,
    "global": {
      "const": {
        "AcquisitionMatrix": [
          68,
          0,
          0,
          68
        ],
        "AngioFlag": "N",
        "BitsAllocated": 16,
        "BitsStored": 12,
        "Columns": 408,
        "EchoNumbers": 1,
        "EchoTime": 23.0,
        "EchoTrainLength": 1,
        "FlipAngle": 76.0,
        "HighBit": 11,
        "ImageOrientationPatient": [
          0.99978068347422,
          0.002370760821,
          0.02080779769603,
          -1.1821075e-08,
          0.99357185654589,
          -0.1132032061382
        ],
        "ImagePositionPatient": [
          -612.80019235261,
          -639.19238460564,
          -6.4522781608621
        ],
        "ImageType": [
          "ORIGINAL",
          "PRIMARY",
          "M",
          "ND",
          "MOSAIC"
        ],
        "ImagedNucleus": "1H",
        "ImagingFrequency": 123.218514,
        "InPlanePhaseEncodingDirection": "COL",
        "MRAcquisitionType": "2D",
        "MagneticFieldStrength": 3.0,
        "Manufacturer": "SIEMENS",
        "ManufacturerModelName": "TrioTim",
        "Modality": "MR",
        "NumberOfAverages": 1.0,
        "NumberOfPhaseEncodingSteps": 68,
        "PercentPhaseFieldOfView": 100.0,
        "PercentSampling": 100.0,
        "PerformedProcedureStepStartTime": "103205.531000",
        "PhotometricInterpretation": "MONOCHROME2",
        "PixelBandwidth": 2451.0,
        "PixelRepresentation": 0,
        "PixelSpacing": [
          3.0,
          3.0
        ],
        "ProtocolName": "ep2d_bold_CardGameEPI_2",
        "RepetitionTime": 2000.0,
        "Rows": 408,
        "SAR": 0.17643596486309,
        "SamplesPerPixel": 1,
        "ScanOptions": "FS",
        "ScanningSequence": "EP",
        "SequenceName": "*epfid2d1_68",
        "SequenceVariant": "SK",
        "SeriesDescription": "ep2d_bold_CardGameEPI_2",
        "SeriesNumber": 8,
        "SeriesTime": "112122.937000",
        "SliceLocation": -65.91863472182,
        "SliceThickness": 2.5,
        "SmallestImagePixelValue": 0,
        "SoftwareVersions": "syngo MR B19",
        "SpacingBetweenSlices": 3.0000000422906,
        "SpecificCharacterSet": "ISO_IR 100",
        "StudyID": "1",
        "StudyTime": "103205.406000",
        "TransmitCoilName": "Body",
        "VariableFlipAngleFlag": "N",
        "WindowCenterWidthExplanation": "Algo1",
        "dBdt": 0.0
      },
      "slices": {}
    },
    "modality": "bold",
    "run_id": 2,
    "subject_id": "213",
    "task_id": "cardgame",
    "time": {
      "samples": {
        "AcquisitionNumber": [
          1,
          2,
          3,
          4,
          5,
          6,
          7,
          8,
          9,
          10,
          11,
          12,
          13,
          14,
          15,
          16,
          17,
          18,
          19,
          20,
          21,
          22,
          23,
          24,
          25,
          26,
          27,
          28,
          29,
          30,
          31,
          32,
          33,
          34,
          35,
          36,
          37,
          38,
          39,
          40,
          41,
          42,
          43,
          44,
          45,
          46,
          47,
          48,
          49,
          50,
          51,
          52,
          53,
          54,
          55,
          56,
          57,
          58,
          59,
          60,
          61,
          62,
          63,
          64,
          65,
          66,
          67,
          68,
          69,
          70,
          71,
          72,
          73,
          74,
          75,
          76,
          77,
          78,
          79,
          80,
          81,
          82,
          83,
          84,
          85,
          86,
          87,
          88,
          89,
          90,
          91,
          92,
          93,
          94,
          95,
          96,
          97,
          98,
          99,
          100,
          101,
          102,
          103,
          104,
          105,
          106,
          107,
          108,
          109,
          110,
          111,
          112,
          113,
          114,
          115,
          116,
          117,
          118,
          119,
          120,
          121,
          122,
          123,
          124,
          125,
          126,
          127,
          128,
          129,
          130,
          131,
          132,
          133,
          134,
          135,
          136,
          137,
          138,
          139,
          140,
          141,
          142,
          143,
          144,
          145,
          146,
          147,
          148,
          149,
          150,
          151,
          152,
          153,
          154,
          155,
          156,
          157,
          158,
          159,
          160,
          161,
          162,
          163,
          164,
          165,
          166,
          167,
          168,
          169,
          170,
          171,
          172,
          173,
          174,
          175,
          176,
          177,
          178,
          179,
          180,
          181,
          182,
          183,
          184,
          185,
          186,
          187,
          188,
          189,
          190,
          191,
          192,
          193,
          194,
          195,
          196,
          197,
          198,
          199,
          200,
          201,
          202,
          203,
          204,
          205,
          206,
          207,
          208,
          209,
          210,
          211,
          212,
          213,
          214,
          215,
          216,
          217,
          218,
          219,
          220,
          221,
          222,
          223,
          224,
          225,
          226,
          227,
          228,
          229,
          230,
          231,
          232,
          233,
          234,
          235,
          236,
          237,
          238,
          239,
          240,
          241,
          242,
          243,
          244,
          245,
          246,
          247,
          248,
          249,
          250,
          251,
          252,
          253,
          254,
          255,
          256,
          257,
          258
        ],
        "AcquisitionTime": [
          "112025.760000",
          "112027.767500",
          "112029.775000",
          "112031.782500",
          "112033.792500",
          "112035.800000",
          "112037.807500",
          "112039.815000",
          "112041.822500",
          "112043.832500",
          "112045.840000",
          "112047.847500",
          "112049.855000",
          "112051.862500",
          "112053.872500",
          "112055.880000",
          "112057.887500",
          "112059.895000",
          "112101.902500",
          "112103.912500",
          "112105.920000",
          "112107.927500",
          "112109.935000",
          "112111.945000",
          "112113.952500",
          "112115.960000",
          "112117.967500",
          "112119.975000",
          "112121.985000",
          "112123.992500",
          "112126.000000",
          "112128.007500",
          "112130.015000",
          "112132.025000",
          "112134.032500",
          "112136.040000",
          "112138.047500",
          "112140.057500",
          "112142.065000",
          "112144.072500",
          "112146.080000",
          "112148.087500",
          "112150.097500",
          "112152.105000",
          "112154.112500",
          "112156.120000",
          "112158.127500",
          "112200.137500",
          "112202.145000",
          "112204.152500",
          "112206.160000",
          "112208.170000",
          "112210.177500",
          "112212.185000",
          "112214.192500",
          "112216.200000",
          "112218.210000",
          "112220.217500",
          "112222.225000",
          "112224.232500",
          "112226.240000",
          "112228.250000",
          "112230.257500",
          "112232.265000",
          "112234.272500",
          "112236.280000",
          "112238.290000",
          "112240.297500",
          "112242.305000",
          "112244.312500",
          "112246.322500",
          "112248.330000",
          "112250.337500",
          "112252.345000",
          "112254.352500",
          "112256.362500",
          "112258.370000",
          "112300.377500",
          "112302.385000",
          "112304.392500",
          "112306.402500",
          "112308.410000",
          "112310.417500",
          "112312.425000",
          "112314.435000",
          "112316.442500",
          "112318.450000",
          "112320.457500",
          "112322.465000",
          "112324.475000",
          "112326.482500",
          "112328.490000",
          "112330.497500",
          "112332.505000",
          "112334.515000",
          "112336.522500",
          "112338.530000",
          "112340.537500",
          "112342.547500",
          "112344.555000",
          "112346.562500",
          "112348.570000",
          "112350.577500",
          "112352.587500",
          "112354.595000",
          "112356.602500",
          "112358.610000",
          "112400.617500",
          "112402.627500",
          "112404.635000",
          "112406.642500",
          "112408.650000",
          "112410.660000",
          "112412.667500",
          "112414.675000",
          "112416.682500",
          "112418.690000",
          "112420.700000",
          "112422.707500",
          "112424.715000",
          "112426.722500",
          "112428.730000",
          "112430.740000",
          "112432.747500",
          "112434.755000",
          "112436.762500",
          "112438.770000",
          "112440.780000",
          "112442.787500",
          "112444.795000",
          "112446.802500",
          "112448.812500",
          "112450.820000",
          "112452.827500",
          "112454.835000",
          "112456.842500",
          "112458.852500",
          "112500.860000",
          "112502.867500",
          "112504.875000",
          "112506.882500",
          "112508.892500",
          "112510.900000",
          "112512.907500",
          "112514.915000",
          "112516.925000",
          "112518.932500",
          "112520.940000",
          "112522.947500",
          "112524.955000",
          "112526.965000",
          "112528.972500",
          "112530.980000",
          "112532.987500",
          "112534.995000",
          "112537.005000",
          "112539.012500",
          "112541.020000",
          "112543.027500",
          "112545.037500",
          "112547.045000",
          "112549.052500",
          "112551.060000",
          "112553.067500",
          "112555.077500",
          "112557.085000",
          "112559.092500",
          "112601.100000",
          "112603.107500",
          "112605.117500",
          "112607.125000",
          "112609.132500",
          "112611.140000",
          "112613.147500",
          "112615.157500",
          "112617.165000",
          "112619.172500",
          "112621.180000",
          "112623.190000",
          "112625.197500",
          "112627.205000",
          "112629.212500",
          "112631.220000",
          "112633.230000",
          "112635.237500",
          "112637.245000",
          "112639.252500",
          "112641.260000",
          "112643.270000",
          "112645.277500",
          "112647.285000",
          "112649.292500",
          "112651.302500",
          "112653.310000",
          "112655.317500",
          "112657.325000",
          "112659.332500",
          "112701.342500",
          "112703.350000",
          "112705.357500",
          "112707.365000",
          "112709.372500",
          "112711.382500",
          "112713.390000",
          "112715.397500",
          "112717.405000",
          "112719.415000",
          "112721.422500",
          "112723.430000",
          "112725.437500",
          "112727.445000",
          "112729.455000",
          "112731.462500",
          "112733.470000",
          "112735.477500",
          "112737.485000",
          "112739.495000",
          "112741.502500",
          "112743.510000",
          "112745.517500",
          "112747.525000",
          "112749.535000",
          "112751.542500",
          "112753.550000",
          "112755.557500",
          "112757.567500",
          "112759.575000",
          "112801.582500",
          "112803.590000",
          "112805.597500",
          "112807.607500",
          "112809.615000",
          "112811.622500",
          "112813.630000",
          "112815.637500",
          "112817.647500",
          "112819.655000",
          "112821.662500",
          "112823.670000",
          "112825.680000",
          "112827.687500",
          "112829.695000",
          "112831.702500",
          "112833.710000",
          "112835.720000",
          "112837.727500",
          "112839.735000",
          "112841.742500",
          "112843.750000",
          "112845.760000",
          "112847.767500",
          "112849.775000",
          "112851.782500",
          "112853.792500",
          "112855.800000",
          "112857.807500",
          "112859.815000",
          "112901.822500"
        ],
        "ContentTime": [
          "112122.937000",
          "112122.937000",
          "112122.937000",
          "112122.953000",
          "112122.953000",
          "112122.953000",
          "112122.953000",
          "112122.953000",
          "112122.953000",
          "112122.953000",
          "112122.968000",
          "112122.968000",
          "112122.968000",
          "112122.968000",
          "112122.968000",
          "112122.984000",
          "112122.984000",
          "112122.984000",
          "112122.984000",
          "112122.984000",
          "112122.984000",
          "112122.984000",
          "112123.000000",
          "112123.000000",
          "112123.000000",
          "112123.000000",
          "112123.000000",
          "112123.015000",
          "112202.937000",
          "112202.937000",
          "112202.937000",
          "112202.937000",
          "112202.937000",
          "112202.953000",
          "112202.953000",
          "112202.953000",
          "112202.953000",
          "112202.953000",
          "112202.953000",
          "112202.953000",
          "112202.953000",
          "112202.968000",
          "112202.968000",
          "112202.968000",
          "112202.968000",
          "112202.968000",
          "112202.968000",
          "112202.968000",
          "112242.937000",
          "112242.937000",
          "112242.937000",
          "112242.937000",
          "112242.937000",
          "112242.953000",
          "112242.953000",
          "112242.953000",
          "112242.953000",
          "112242.953000",
          "112242.953000",
          "112242.953000",
          "112242.968000",
          "112242.968000",
          "112242.968000",
          "112242.968000",
          "112242.968000",
          "112242.968000",
          "112242.984000",
          "112242.984000",
          "112322.937000",
          "112322.937000",
          "112322.937000",
          "112322.937000",
          "112322.937000",
          "112322.953000",
          "112322.953000",
          "112322.953000",
          "112322.953000",
          "112322.953000",
          "112322.953000",
          "112322.953000",
          "112322.968000",
          "112322.968000",
          "112322.968000",
          "112322.968000",
          "112322.968000",
          "112322.968000",
          "112322.968000",
          "112322.984000",
          "112342.937000",
          "112342.937000",
          "112342.937000",
          "112342.937000",
          "112342.937000",
          "112342.953000",
          "112342.953000",
          "112342.953000",
          "112342.953000",
          "112342.953000",
          "112422.937000",
          "112422.937000",
          "112422.937000",
          "112422.937000",
          "112422.953000",
          "112422.953000",
          "112422.953000",
          "112422.953000",
          "112422.953000",
          "112422.953000",
          "112422.953000",
          "112422.953000",
          "112422.968000",
          "112422.968000",
          "112422.968000",
          "112422.968000",
          "112422.968000",
          "112422.968000",
          "112422.968000",
          "112422.984000",
          "112502.937000",
          "112502.937000",
          "112502.937000",
          "112502.937000",
          "112502.937000",
          "112502.953000",
          "112502.953000",
          "112502.953000",
          "112502.953000",
          "112502.953000",
          "112502.953000",
          "112502.953000",
          "112502.968000",
          "112502.968000",
          "112502.968000",
          "112502.968000",
          "112502.968000",
          "112502.968000",
          "112502.968000",
          "112502.968000",
          "112542.937000",
          "112542.937000",
          "112542.937000",
          "112542.937000",
          "112542.937000",
          "112542.953000",
          "112542.953000",
          "112542.953000",
          "112542.953000",
          "112542.953000",
          "112542.953000",
          "112542.953000",
          "112542.968000",
          "112542.968000",
          "112542.968000",
          "112542.968000",
          "112542.968000",
          "112542.968000",
          "112542.968000",
          "112542.968000",
          "112622.937000",
          "112622.937000",
          "112622.937000",
          "112622.937000",
          "112622.953000",
          "112622.953000",
          "112622.968000",
          "112622.968000",
          "112622.968000",
          "112622.968000",
          "112622.968000",
          "112622.968000",
          "112622.968000",
          "112622.984000",
          "112622.984000",
          "112622.984000",
          "112622.984000",
          "112622.984000",
          "112622.984000",
          "112622.984000",
          "112702.937000",
          "112702.937000",
          "112702.937000",
          "112702.937000",
          "112702.937000",
          "112702.953000",
          "112702.953000",
          "112702.953000",
          "112702.953000",
          "112702.953000",
          "112702.953000",
          "112702.953000",
          "112702.968000",
          "112702.968000",
          "112702.968000",
          "112702.968000",
          "112702.968000",
          "112702.968000",
          "112702.968000",
          "112702.984000",
          "112742.937000",
          "112742.937000",
          "112742.953000",
          "112742.953000",
          "112742.953000",
          "112742.953000",
          "112742.953000",
          "112742.953000",
          "112742.953000",
          "112742.968000",
          "112742.968000",
          "112742.968000",
          "112742.968000",
          "112742.968000",
          "112742.968000",
          "112742.968000",
          "112742.984000",
          "112742.984000",
          "112742.984000",
          "112742.984000",
          "112822.937000",
          "112822.937000",
          "112822.937000",
          "112822.937000",
          "112822.937000",
          "112822.953000",
          "112822.953000",
          "112822.953000",
          "112822.953000",
          "112822.953000",
          "112822.953000",
          "112822.953000",
          "112822.968000",
          "112822.968000",
          "112822.968000",
          "112822.968000",
          "112822.968000",
          "112822.968000",
          "112822.968000",
          "112822.984000",
          "112901.265000",
          "112901.265000",
          "112901.265000",
          "112901.265000",
          "112901.265000",
          "112901.265000",
          "112901.281000",
          "112901.281000",
          "112901.281000",
          "112901.281000",
          "112901.281000",
          "112901.281000",
          "112901.281000",
          "112901.296000",
          "112901.296000",
          "112901.296000",
          "112901.296000",
          "112901.296000",
          "112901.296000",
          "112901.296000"
        ],
        "InstanceCreationTime": [
          "112122.937000",
          "112122.937000",
          "112122.937000",
          "112122.953000",
          "112122.953000",
          "112122.953000",
          "112122.953000",
          "112122.953000",
          "112122.953000",
          "112122.953000",
          "112122.968000",
          "112122.968000",
          "112122.968000",
          "112122.968000",
          "112122.968000",
          "112122.984000",
          "112122.984000",
          "112122.984000",
          "112122.984000",
          "112122.984000",
          "112122.984000",
          "112122.984000",
          "112123.000000",
          "112123.000000",
          "112123.000000",
          "112123.000000",
          "112123.000000",
          "112123.015000",
          "112202.937000",
          "112202.937000",
          "112202.937000",
          "112202.937000",
          "112202.937000",
          "112202.953000",
          "112202.953000",
          "112202.953000",
          "112202.953000",
          "112202.953000",
          "112202.953000",
          "112202.953000",
          "112202.953000",
          "112202.968000",
          "112202.968000",
          "112202.968000",
          "112202.968000",
          "112202.968000",
          "112202.968000",
          "112202.968000",
          "112242.937000",
          "112242.937000",
          "112242.937000",
          "112242.937000",
          "112242.937000",
          "112242.953000",
          "112242.953000",
          "112242.953000",
          "112242.953000",
          "112242.953000",
          "112242.953000",
          "112242.953000",
          "112242.968000",
          "112242.968000",
          "112242.968000",
          "112242.968000",
          "112242.968000",
          "112242.968000",
          "112242.984000",
          "112242.984000",
          "112322.937000",
          "112322.937000",
          "112322.937000",
          "112322.937000",
          "112322.937000",
          "112322.953000",
          "112322.953000",
          "112322.953000",
          "112322.953000",
          "112322.953000",
          "112322.953000",
          "112322.953000",
          "112322.968000",
          "112322.968000",
          "112322.968000",
          "112322.968000",
          "112322.968000",
          "112322.968000",
          "112322.968000",
          "112322.984000",
          "112342.937000",
          "112342.937000",
          "112342.937000",
          "112342.937000",
          "112342.937000",
          "112342.953000",
          "112342.953000",
          "112342.953000",
          "112342.953000",
          "112342.953000",
          "112422.937000",
          "112422.937000",
          "112422.937000",
          "112422.937000",
          "112422.953000",
          "112422.953000",
          "112422.953000",
          "112422.953000",
          "112422.953000",
          "112422.953000",
          "112422.953000",
          "112422.953000",
          "112422.968000",
          "112422.968000",
          "112422.968000",
          "112422.968000",
          "112422.968000",
          "112422.968000",
          "112422.968000",
          "112422.984000",
          "112502.937000",
          "112502.937000",
          "112502.937000",
          "112502.937000",
          "112502.937000",
          "112502.953000",
          "112502.953000",
          "112502.953000",
          "112502.953000",
          "112502.953000",
          "112502.953000",
          "112502.953000",
          "112502.968000",
          "112502.968000",
          "112502.968000",
          "112502.968000",
          "112502.968000",
          "112502.968000",
          "112502.968000",
          "112502.968000",
          "112542.937000",
          "112542.937000",
          "112542.937000",
          "112542.937000",
          "112542.937000",
          "112542.953000",
          "112542.953000",
          "112542.953000",
          "112542.953000",
          "112542.953000",
          "112542.953000",
          "112542.953000",
          "112542.968000",
          "112542.968000",
          "112542.968000",
          "112542.968000",
          "112542.968000",
          "112542.968000",
          "112542.968000",
          "112542.968000",
          "112622.937000",
          "112622.937000",
          "112622.937000",
          "112622.937000",
          "112622.953000",
          "112622.953000",
          "112622.968000",
          "112622.968000",
          "112622.968000",
          "112622.968000",
          "112622.968000",
          "112622.968000",
          "112622.968000",
          "112622.984000",
          "112622.984000",
          "112622.984000",
          "112622.984000",
          "112622.984000",
          "112622.984000",
          "112622.984000",
          "112702.937000",
          "112702.937000",
          "112702.937000",
          "112702.937000",
          "112702.937000",
          "112702.953000",
          "112702.953000",
          "112702.953000",
          "112702.953000",
          "112702.953000",
          "112702.953000",
          "112702.953000",
          "112702.968000",
          "112702.968000",
          "112702.968000",
          "112702.968000",
          "112702.968000",
          "112702.968000",
          "112702.968000",
          "112702.984000",
          "112742.937000",
          "112742.937000",
          "112742.953000",
          "112742.953000",
          "112742.953000",
          "112742.953000",
          "112742.953000",
          "112742.953000",
          "112742.953000",
          "112742.968000",
          "112742.968000",
          "112742.968000",
          "112742.968000",
          "112742.968000",
          "112742.968000",
          "112742.968000",
          "112742.984000",
          "112742.984000",
          "112742.984000",
          "112742.984000",
