{
  "aor": 0.0019594166666666666,
  "aqi": 0.013785570125,
  "bids_meta": {
    "AcquisitionMatrixPE": 68,
    "AcquisitionNumber": 1,
    "AcquisitionTime": "16:51:55.940000",
    "BandwidthPerPixelPhaseEncode": 31.289,
    "BaseResolution": 68,
    "CogAtlasID": "TODO",
    "CoilString": "C:HEA;HEP",
    "ConversionSoftware": "dcm2niix",
    "ConversionSoftwareVersion": "v1.0.20190902",
    "DerivedVendorReportedEchoSpacing": 0.000470002,
    "DeviceSerialNumber": "35450",
    "DwellTime": 3e-06,
    "EchoTime": 0.023,
    "EffectiveEchoSpacing": 0.000470002,
    "FlipAngle": 76,
    "ImageOrientationPatientDICOM": [
      0.999903,
      0.000438497,
      0.0139553,
      6.58041e-08,
      0.999507,
      -0.0314108
    ],
    "ImageType": [
      "ORIGINAL",
      "PRIMARY",
      "M",
      "ND",
      "MOSAIC"
    ],
    "ImagingFrequency": 123.219,
    "InPlanePhaseEncodingDirectionDICOM": "COL",
    "InstitutionAddress": "Univeristy_Ave._197_Newark_North_East_US_07102-1814",
    "InstitutionName": "RUBIC",
    "InstitutionalDepartmentName": "Department",
    "MRAcquisitionType": "2D",
    "MagneticFieldStrength": 3,
    "Manufacturer": "Siemens",
    "ManufacturersModelName": "TrioTim",
    "Modality": "MR",
    "PartialFourier": 1,
    "PatientPosition": "HFS",
    "PercentPhaseFOV": 100,
    "PhaseEncodingDirection": "j-",
    "PhaseEncodingSteps": 68,
    "PhaseResolution": 1,
    "PixelBandwidth": 2451,
    "ProcedureStepDescription": "Krekelberg_David",
    "ProtocolName": "ep2d_bold_RestEPI_2",
    "PulseSequenceDetails": "%SiemensSeq%_ep2d_bold",
    "ReceiveCoilName": "HeadMatrix",
    "ReconMatrixPE": 68,
    "RepetitionTime": 2,
    "SAR": 0.206985,
    "ScanOptions": "FS",
    "ScanningSequence": "EP",
    "SequenceName": "_epfid2d1_68",
    "SequenceVariant": "SK",
    "SeriesDescription": "ep2d_bold_RestEPI_2",
    "SeriesNumber": 11,
    "ShimSetting": [
      1978,
      -681,
      -7618,
      510,
      26,
      56,
      -67,
      -53
    ],
    "SliceThickness": 2.5,
    "SliceTiming": [
      1.9525,
      1.8975,
      1.84,
      1.785,
      1.73,
      1.6725,
      1.6175,
      1.5625,
      1.505,
      1.45,
      1.395,
      1.3375,
      1.2825,
      1.2275,
      1.1725,
      1.115,
      1.06,
      1.005,
      0.9475,
      0.8925,
      0.8375,
      0.78,
      0.725,
      0.67,
      0.615,
      0.5575,
      0.5025,
      0.4475,
      0.39,
      0.335,
      0.28,
      0.2225,
      0.1675,
      0.1125,
      0.055,
      0
    ],
    "SoftwareVersions": "syngo_MR_B19",
    "SpacingBetweenSlices": 3,
    "StationName": "MRC35450",
    "TaskName": "rest",
    "TotalReadoutTime": 0.0314901,
    "TxRefAmp": 371.337,
    "dataset": "<unset>",
    "dcmmeta_affine": [
      [
        -2.9997074604034424,
        1.9741216306101705e-07,
        0.04188653454184532,
        101.25703430175781
      ],
      [
        -0.0013154904590919614,
        2.9985196590423584,
        -0.09422308951616287,
        -74.88463592529297
      ],
      [
        0.04186587408185005,
        0.09423227608203888,
        2.99822735786438,
        -42.086830139160156
      ],
      [
        0.0,
        0.0,
        0.0,
        1.0
      ]
    ],
    "dcmmeta_reorient_transform": [
      [
        0.0,
        -1.0,
        0.0,
        67.0
      ],
      [
        1.0,
        0.0,
        0.0,
        0.0
      ],
      [
        0.0,
        0.0,
        1.0,
        0.0
      ],
      [
        0.0,
        0.0,
        0.0,
        1.0
      ]
    ],
    "dcmmeta_shape": [
      68,
      68,
      36,
      240
    ],
    "dcmmeta_slice_dim": 2,
    "dcmmeta_version": 0.6,
    "global": {
      "const": {
        "AcquisitionMatrix": [
          68,
          0,
          0,
          68
        ],
        "AngioFlag": "N",
        "BitsAllocated": 16,
        "BitsStored": 12,
        "Columns": 408,
        "EchoNumbers": 1,
        "EchoTime": 23.0,
        "EchoTrainLength": 1,
        "FlipAngle": 76.0,
        "HighBit": 11,
        "ImageOrientationPatient": [
          0.99990252403474,
          0.00043849683883,
          0.01395529109297,
          6.5804054e-08,
          0.9995065604144,
          -0.0314107575294
        ],
        "ImagePositionPatient": [
          -611.20737051696,
          -635.98816077506,
          -26.870980737171
        ],
        "ImageType": [
          "ORIGINAL",
          "PRIMARY",
          "M",
          "ND",
          "MOSAIC"
        ],
        "ImagedNucleus": "1H",
        "ImagingFrequency": 123.218588,
        "InPlanePhaseEncodingDirection": "COL",
        "MRAcquisitionType": "2D",
        "MagneticFieldStrength": 3.0,
        "Manufacturer": "SIEMENS",
        "ManufacturerModelName": "TrioTim",
        "Modality": "MR",
        "NumberOfAverages": 1.0,
        "NumberOfPhaseEncodingSteps": 68,
        "PercentPhaseFieldOfView": 100.0,
        "PercentSampling": 100.0,
        "PerformedProcedureStepStartTime": "153409.281000",
        "PhotometricInterpretation": "MONOCHROME2",
        "PixelBandwidth": 2451.0,
        "PixelRepresentation": 0,
        "PixelSpacing": [
          3.0,
          3.0
        ],
        "ProtocolName": "ep2d_bold_RestEPI_2",
        "RepetitionTime": 2000.0,
        "Rows": 408,
        "SAR": 0.20698478753836,
        "SamplesPerPixel": 1,
        "ScanOptions": "FS",
        "ScanningSequence": "EP",
        "SequenceName": "*epfid2d1_68",
        "SequenceVariant": "SK",
        "SeriesDescription": "ep2d_bold_RestEPI_2",
        "SeriesNumber": 11,
        "SeriesTime": "165249.671000",
        "SliceLocation": -38.296240358971,
        "SliceThickness": 2.5,
        "SmallestImagePixelValue": 0,
        "SoftwareVersions": "syngo MR B19",
        "SpacingBetweenSlices": 2.9999999668045,
        "SpecificCharacterSet": "ISO_IR 100",
        "StudyID": "1",
        "StudyTime": "153409.234000",
        "TransmitCoilName": "Body",
        "VariableFlipAngleFlag": "N",
        "WindowCenterWidthExplanation": "Algo1",
        "dBdt": 0.0
      },
      "slices": {}
    },
    "modality": "bold",
    "run_id": 2,
    "subject_id": "208",
    "task_id": "rest",
    "time": {
      "samples": {
        "AcquisitionNumber": [
          1,
          2,
          3,
          4,
          5,
          6,
          7,
          8,
          9,
          10,
          11,
          12,
          13,
          14,
          15,
          16,
          17,
          18,
          19,
          20,
          21,
          22,
          23,
          24,
          25,
          26,
          27,
          28,
          29,
          30,
          31,
          32,
          33,
          34,
          35,
          36,
          37,
          38,
          39,
          40,
          41,
          42,
          43,
          44,
          45,
          46,
          47,
          48,
          49,
          50,
          51,
          52,
          53,
          54,
          55,
          56,
          57,
          58,
          59,
          60,
          61,
          62,
          63,
          64,
          65,
          66,
          67,
          68,
          69,
          70,
          71,
          72,
          73,
          74,
          75,
          76,
          77,
          78,
          79,
          80,
          81,
          82,
          83,
          84,
          85,
          86,
          87,
          88,
          89,
          90,
          91,
          92,
          93,
          94,
          95,
          96,
          97,
          98,
          99,
          100,
          101,
          102,
          103,
          104,
          105,
          106,
          107,
          108,
          109,
          110,
          111,
          112,
          113,
          114,
          115,
          116,
          117,
          118,
          119,
          120,
          121,
          122,
          123,
          124,
          125,
          126,
          127,
          128,
          129,
          130,
          131,
          132,
          133,
          134,
          135,
          136,
          137,
          138,
          139,
          140,
          141,
          142,
          143,
          144,
          145,
          146,
          147,
          148,
          149,
          150,
          151,
          152,
          153,
          154,
          155,
          156,
          157,
          158,
          159,
          160,
          161,
          162,
          163,
          164,
          165,
          166,
          167,
          168,
          169,
          170,
          171,
          172,
          173,
          174,
          175,
          176,
          177,
          178,
          179,
          180,
          181,
          182,
          183,
          184,
          185,
          186,
          187,
          188,
          189,
          190,
          191,
          192,
          193,
          194,
          195,
          196,
          197,
          198,
          199,
          200,
          201,
          202,
          203,
          204,
          205,
          206,
          207,
          208,
          209,
          210,
          211,
          212,
          213,
          214,
          215,
          216,
          217,
          218,
          219,
          220,
          221,
          222,
          223,
          224,
          225,
          226,
          227,
          228,
          229,
          230,
          231,
          232,
          233,
          234,
          235,
          236,
          237,
          238,
          239,
          240
        ],
        "AcquisitionTime": [
          "165155.940000",
          "165157.947500",
          "165159.955000",
          "165201.962500",
          "165203.972500",
          "165205.980000",
          "165207.987500",
          "165209.995000",
          "165212.005000",
          "165214.012500",
          "165216.020000",
          "165218.027500",
          "165220.035000",
          "165222.045000",
          "165224.052500",
          "165226.060000",
          "165228.067500",
          "165230.075000",
          "165232.085000",
          "165234.092500",
          "165236.100000",
          "165238.107500",
          "165240.117500",
          "165242.125000",
          "165244.132500",
          "165246.140000",
          "165248.147500",
          "165250.157500",
          "165252.165000",
          "165254.172500",
          "165256.180000",
          "165258.187500",
          "165300.197500",
          "165302.205000",
          "165304.212500",
          "165306.220000",
          "165308.230000",
          "165310.237500",
          "165312.245000",
          "165314.252500",
          "165316.260000",
          "165318.270000",
          "165320.277500",
          "165322.285000",
          "165324.292500",
          "165326.300000",
          "165328.310000",
          "165330.317500",
          "165332.325000",
          "165334.332500",
          "165336.340000",
          "165338.350000",
          "165340.357500",
          "165342.365000",
          "165344.372500",
          "165346.382500",
          "165348.390000",
          "165350.397500",
          "165352.405000",
          "165354.412500",
          "165356.422500",
          "165358.430000",
          "165400.437500",
          "165402.445000",
          "165404.452500",
          "165406.462500",
          "165408.470000",
          "165410.477500",
          "165412.485000",
          "165414.495000",
          "165416.502500",
          "165418.510000",
          "165420.517500",
          "165422.525000",
          "165424.535000",
          "165426.542500",
          "165428.550000",
          "165430.557500",
          "165432.565000",
          "165434.575000",
          "165436.582500",
          "165438.590000",
          "165440.597500",
          "165442.607500",
          "165444.615000",
          "165446.622500",
          "165448.630000",
          "165450.637500",
          "165452.647500",
          "165454.655000",
          "165456.662500",
          "165458.670000",
          "165500.677500",
          "165502.687500",
          "165504.695000",
          "165506.702500",
          "165508.710000",
          "165510.717500",
          "165512.727500",
          "165514.735000",
          "165516.742500",
          "165518.750000",
          "165520.760000",
          "165522.767500",
          "165524.775000",
          "165526.782500",
          "165528.790000",
          "165530.800000",
          "165532.807500",
          "165534.815000",
          "165536.822500",
          "165538.830000",
          "165540.840000",
          "165542.847500",
          "165544.855000",
          "165546.862500",
          "165548.872500",
          "165550.880000",
          "165552.887500",
          "165554.895000",
          "165556.902500",
          "165558.912500",
          "165600.920000",
          "165602.927500",
          "165604.935000",
          "165606.942500",
          "165608.952500",
          "165610.960000",
          "165612.967500",
          "165614.975000",
          "165616.985000",
          "165618.992500",
          "165621.000000",
          "165623.007500",
          "165625.015000",
          "165627.025000",
          "165629.032500",
          "165631.040000",
          "165633.047500",
          "165635.055000",
          "165637.065000",
          "165639.072500",
          "165641.080000",
          "165643.087500",
          "165645.097500",
          "165647.105000",
          "165649.112500",
          "165651.120000",
          "165653.127500",
          "165655.137500",
          "165657.145000",
          "165659.152500",
          "165701.160000",
          "165703.167500",
          "165705.177500",
          "165707.185000",
          "165709.192500",
          "165711.200000",
          "165713.207500",
          "165715.217500",
          "165717.225000",
          "165719.232500",
          "165721.240000",
          "165723.250000",
          "165725.257500",
          "165727.265000",
          "165729.272500",
          "165731.280000",
          "165733.290000",
          "165735.297500",
          "165737.305000",
          "165739.312500",
          "165741.320000",
          "165743.330000",
          "165745.337500",
          "165747.345000",
          "165749.352500",
          "165751.362500",
          "165753.370000",
          "165755.377500",
          "165757.385000",
          "165759.392500",
          "165801.402500",
          "165803.410000",
          "165805.417500",
          "165807.425000",
          "165809.432500",
          "165811.442500",
          "165813.450000",
          "165815.457500",
          "165817.465000",
          "165819.475000",
          "165821.482500",
          "165823.490000",
          "165825.497500",
          "165827.505000",
          "165829.515000",
          "165831.522500",
          "165833.530000",
          "165835.537500",
          "165837.545000",
          "165839.555000",
          "165841.562500",
          "165843.570000",
          "165845.577500",
          "165847.585000",
          "165849.595000",
          "165851.602500",
          "165853.610000",
          "165855.617500",
          "165857.627500",
          "165859.635000",
          "165901.642500",
          "165903.650000",
          "165905.657500",
          "165907.667500",
          "165909.675000",
          "165911.682500",
          "165913.690000",
          "165915.697500",
          "165917.707500",
          "165919.715000",
          "165921.722500",
          "165923.730000",
          "165925.740000",
          "165927.747500",
          "165929.755000",
          "165931.762500",
          "165933.770000",
          "165935.780000",
          "165937.787500",
          "165939.795000",
          "165941.802500",
          "165943.810000",
          "165945.820000",
          "165947.827500",
          "165949.835000",
          "165951.842500",
          "165953.852500",
          "165955.860000"
        ],
        "ContentTime": [
          "165249.671000",
          "165249.671000",
          "165249.671000",
          "165249.687000",
          "165249.687000",
          "165249.687000",
          "165249.687000",
          "165249.687000",
          "165249.687000",
          "165249.687000",
          "165249.703000",
          "165249.703000",
          "165249.703000",
          "165249.703000",
          "165249.703000",
          "165249.703000",
          "165249.703000",
          "165249.718000",
          "165249.718000",
          "165249.718000",
          "165249.718000",
          "165249.718000",
          "165249.718000",
          "165249.718000",
          "165249.734000",
          "165249.734000",
          "165249.734000",
          "165329.671000",
          "165329.671000",
          "165329.671000",
          "165329.671000",
          "165329.671000",
          "165329.671000",
          "165329.687000",
          "165329.687000",
          "165329.687000",
          "165329.687000",
          "165329.687000",
          "165329.687000",
          "165329.687000",
          "165329.703000",
          "165329.703000",
          "165329.703000",
          "165329.718000",
          "165329.718000",
          "165329.718000",
          "165329.718000",
          "165409.671000",
          "165409.671000",
          "165409.671000",
          "165409.671000",
          "165409.671000",
          "165409.687000",
          "165409.687000",
          "165409.687000",
          "165409.687000",
          "165409.687000",
          "165409.687000",
          "165409.687000",
          "165409.687000",
          "165409.703000",
          "165409.703000",
          "165409.703000",
          "165409.703000",
          "165409.703000",
          "165409.703000",
          "165409.703000",
          "165449.671000",
          "165449.671000",
          "165449.671000",
          "165449.671000",
          "165449.671000",
          "165449.687000",
          "165449.687000",
          "165449.687000",
          "165449.687000",
          "165449.687000",
          "165449.687000",
          "165449.687000",
          "165449.687000",
          "165449.703000",
          "165449.703000",
          "165449.703000",
          "165449.703000",
          "165449.703000",
          "165449.703000",
          "165449.703000",
          "165529.671000",
          "165529.671000",
          "165529.671000",
          "165529.671000",
          "165529.671000",
          "165529.687000",
          "165529.687000",
          "165529.687000",
          "165529.687000",
          "165529.687000",
          "165529.687000",
          "165529.687000",
          "165529.687000",
          "165529.703000",
          "165529.703000",
          "165529.703000",
          "165529.703000",
          "165529.703000",
          "165529.703000",
          "165529.703000",
          "165609.671000",
          "165609.671000",
          "165609.671000",
          "165609.671000",
          "165609.671000",
          "165609.671000",
          "165609.687000",
          "165609.687000",
          "165609.687000",
          "165609.687000",
          "165609.687000",
          "165609.687000",
          "165609.687000",
          "165609.703000",
          "165609.703000",
          "165609.703000",
          "165609.703000",
          "165609.703000",
          "165609.703000",
          "165609.703000",
          "165649.671000",
          "165649.671000",
          "165649.671000",
          "165649.671000",
          "165649.671000",
          "165649.687000",
          "165649.687000",
          "165649.687000",
          "165649.687000",
          "165649.687000",
          "165649.687000",
          "165649.687000",
          "165649.687000",
          "165649.703000",
          "165649.703000",
          "165649.703000",
          "165649.703000",
          "165649.703000",
          "165649.703000",
          "165649.703000",
          "165729.671000",
          "165729.671000",
          "165729.671000",
          "165729.671000",
          "165729.671000",
          "165729.671000",
          "165729.687000",
          "165729.687000",
          "165729.687000",
          "165729.687000",
          "165729.687000",
          "165729.687000",
          "165729.687000",
          "165729.687000",
          "165729.703000",
          "165729.703000",
          "165729.703000",
          "165729.703000",
          "165729.703000",
          "165729.703000",
          "165809.671000",
          "165809.671000",
          "165809.671000",
          "165809.671000",
          "165809.671000",
          "165809.671000",
          "165809.687000",
          "165809.687000",
          "165809.687000",
          "165809.687000",
          "165809.687000",
          "165809.687000",
          "165809.687000",
          "165809.703000",
          "165809.703000",
          "165809.703000",
          "165809.703000",
          "165809.703000",
          "165809.703000",
          "165809.703000",
          "165849.671000",
          "165849.671000",
          "165849.671000",
          "165849.671000",
          "165849.671000",
          "165849.671000",
          "165849.687000",
          "165849.687000",
          "165849.687000",
          "165849.687000",
          "165849.687000",
          "165849.687000",
          "165849.687000",
          "165849.703000",
          "165849.703000",
          "165849.703000",
          "165849.703000",
          "165849.703000",
          "165849.703000",
          "165849.703000",
          "165929.671000",
          "165929.671000",
          "165929.671000",
          "165929.671000",
          "165929.671000",
          "165929.671000",
          "165929.687000",
          "165929.687000",
          "165929.687000",
          "165929.687000",
          "165929.687000",
          "165929.687000",
          "165929.687000",
          "165929.703000",
          "165929.703000",
          "165929.703000",
          "165929.703000",
          "165929.703000",
          "165929.703000",
          "165929.703000",
          "165955.468000",
          "165955.468000",
          "165955.468000",
          "165955.468000",
          "165955.468000",
          "165955.484000",
          "165955.484000",
          "165955.484000",
          "165955.484000",
          "165955.484000",
          "165955.484000",
          "165955.484000",
          "165955.500000"
        ],
        "InstanceCreationTime": [
          "165249.671000",
          "165249.671000",
          "165249.671000",
          "165249.687000",
          "165249.687000",
          "165249.687000",
          "165249.687000",
          "165249.687000",
          "165249.687000",
          "165249.687000",
          "165249.703000",
          "165249.703000",
          "165249.703000",
          "165249.703000",
          "165249.703000",
          "165249.703000",
          "165249.703000",
          "165249.718000",
          "165249.718000",
          "165249.718000",
          "165249.718000",
          "165249.718000",
          "165249.718000",
          "165249.718000",
          "165249.734000",
          "165249.734000",
          "165249.734000",
          "165329.671000",
          "165329.671000",
          "165329.671000",
          "165329.671000",
          "165329.671000",
          "165329.671000",
          "165329.687000",
          "165329.687000",
          "165329.687000",
          "165329.687000",
          "165329.687000",
          "165329.687000",
          "165329.687000",
          "165329.703000",
          "165329.703000",
          "165329.703000",
          "165329.718000",
          "165329.718000",
          "165329.718000",
          "165329.718000",
          "165409.671000",
          "165409.671000",
          "165409.671000",
          "165409.671000",
          "165409.671000",
          "165409.687000",
          "165409.687000",
          "165409.687000",
          "165409.687000",
          "165409.687000",
          "165409.687000",
          "165409.687000",
          "165409.687000",
          "165409.703000",
          "165409.703000",
          "165409.703000",
          "165409.703000",
          "165409.703000",
          "165409.703000",
          "165409.703000",
          "165449.671000",
          "165449.671000",
          "165449.671000",
          "165449.671000",
          "165449.671000",
          "165449.687000",
          "165449.687000",
          "165449.687000",
          "165449.687000",
          "165449.687000",
          "165449.687000",
          "165449.687000",
          "165449.687000",
          "165449.703000",
          "165449.703000",
          "165449.703000",
          "165449.703000",
          "165449.703000",
          "165449.703000",
          "165449.703000",
          "165529.671000",
          "165529.671000",
          "165529.671000",
          "165529.671000",
          "165529.671000",
          "165529.687000",
          "165529.687000",
          "165529.687000",
          "165529.687000",
          "165529.687000",
          "165529.687000",
          "165529.687000",
          "165529.687000",
          "165529.703000",
          "165529.703000",
          "165529.703000",
          "165529.703000",
          "165529.703000",
          "165529.703000",
          "165529.703000",
          "165609.671000",
          "165609.671000",
          "165609.671000",
          "165609.671000",
          "165609.671000",
          "165609.671000",
          "165609.687000",
          "165609.687000",
          "165609.687000",
          "165609.687000",
          "165609.687000",
          "165609.687000",
          "165609.687000",
          "165609.703000",
          "165609.703000",
          "165609.703000",
          "165609.703000",
          "165609.703000",
          "165609.703000",
          "165609.703000",
          "165649.671000",
          "165649.671000",
          "165649.671000",
          "165649.671000",
          "165649.671000",
          "165649.687000",
          "165649.687000",
          "165649.687000",
          "165649.687000",
          "165649.687000",
          "165649.687000",
          "165649.687000",
          "165649.687000",
          "165649.703000",
          "165649.703000",
          "165649.703000",
          "165649.703000",
          "165649.703000",
          "165649.703000",
          "165649.703000",
          "165729.671000",
          "165729.671000",
          "165729.671000",
          "165729.671000",
          "165729.671000",
          "165729.671000",
          "165729.687000",
          "165729.687000",
          "165729.687000",
          "165729.687000",
          "165729.687000",
          "165729.687000",
          "165729.687000",
          "165729.687000",
          "165729.703000",
          "165729.703000",
          "165729.703000",
          "165729.703000",
          "165729.703000",
          "165729.703000",
          "165809.671000",
          "165809.671000",
          "165809.671000",
          "165809.671000",
          "165809.671000",
          "165809.671000",
          "165809.687000",
          "165809.687000",
          "165809.687000",
          "165809.687000",
          "165809.687000",
          "165809.687000",
          "165809.687000",
          "165809.703000",
          "165809.703000",
          "165809.703000",
          "165809.703000",
          "165809.703000",
          "165809.703000",
          "165809.703000",
          "165849.671000",
          "165849.671000",
          "165849.671000",
          "165849.671000",
          "165849.671000",
          "165849.671000",
          "165849.687000",
          "165849.687000",
          "165849.687000",
          "165849.687000",
          "165849.687000",
          "165849.687000",
          "165849.687000",
          "165849.703000",
          "165849.703000",
          "165849.703000",
          "165849.703000",
          "165849.703000",
          "165849.703000",
          "165849.703000",
          "165929.671000",
          "165929.671000",
          "165929.671000",
          "165929.671000",
          "165929.671000",
          "165929.671000",
          "165929.687000",
          "165929.687000",
          "165929.687000",
          "165929.687000",
          "165929.687000",
          "165929.687000",
          "165929.687000",
          "165929.703000",
          "165929.703000",
          "165929.703000",
          "165929.703000",
          "165929.703000",
          "165929.703000",
          "165929.703000",
          "165955.468000",
          "165955.468000",
          "165955.468000",
          "165955.468000",
          "165955.468000",
          "165955.484000",
          "165955.484000",
          "165955.484000",
          "165955.484000",
          "165955.484000",
          "165955.484000",
          "165955.484000",
          "165955.500000"
        ],
        "InstanceNumber": [
          1,
          2,
          3,
          4,
          5,
          6,
          7,
          8,
          9,
          10,
          11,
          12,
          13,
          14,
          15,
          16,
          17,
          18,
          19,
          20,
          21,
          22,
          23,
          24,
          25,
          26,
          27,
          28,
          29,
          30,
          31,
          32,
          33,
          34,
          35,
          36,
          37,
          38,
          39,
          40,
          41,
          42,
          43,
          44,
          45,
          46,
