{
  "aor": 0.0013643579766536968,
  "aqi": 0.013621131945525292,
  "bids_meta": {
    "AcquisitionMatrixPE": 68,
    "AcquisitionNumber": 1,
    "AcquisitionTime": "12:26:39.540000",
    "BandwidthPerPixelPhaseEncode": 31.289,
    "BaseResolution": 68,
    "CogAtlasID": "TODO",
    "CoilString": "C:HEA;HEP",
    "ConversionSoftware": "dcm2niix",
    "ConversionSoftwareVersion": "v1.0.20190902",
    "DerivedVendorReportedEchoSpacing": 0.000470002,
    "DeviceSerialNumber": "35450",
    "DwellTime": 3e-06,
    "EchoTime": 0.023,
    "EffectiveEchoSpacing": 0.000470002,
    "FlipAngle": 76,
    "ImageOrientationPatientDICOM": [
      1,
      0,
      0,
      0,
      0.995725,
      -0.0923706
    ],
    "ImageType": [
      "ORIGINAL",
      "PRIMARY",
      "M",
      "ND",
      "MOSAIC"
    ],
    "ImagingFrequency": 123.219,
    "InPlanePhaseEncodingDirectionDICOM": "COL",
    "InstitutionAddress": "Univeristy_Ave._197_Newark_North_East_US_07102-1814",
    "InstitutionName": "RUBIC",
    "InstitutionalDepartmentName": "Department",
    "MRAcquisitionType": "2D",
    "MagneticFieldStrength": 3,
    "Manufacturer": "Siemens",
    "ManufacturersModelName": "TrioTim",
    "Modality": "MR",
    "PartialFourier": 1,
    "PatientPosition": "HFS",
    "PercentPhaseFOV": 100,
    "PhaseEncodingDirection": "j-",
    "PhaseEncodingSteps": 68,
    "PhaseResolution": 1,
    "PixelBandwidth": 2451,
    "ProcedureStepDescription": "Krekelberg_David",
    "ProtocolName": "ep2d_bold_CardGameEPI_3",
    "PulseSequenceDetails": "%SiemensSeq%_ep2d_bold",
    "ReceiveCoilName": "HeadMatrix",
    "ReconMatrixPE": 68,
    "RepetitionTime": 2,
    "SAR": 0.196992,
    "ScanOptions": "FS",
    "ScanningSequence": "EP",
    "SequenceName": "_epfid2d1_68",
    "SequenceVariant": "SK",
    "SeriesDescription": "ep2d_bold_CardGameEPI_3",
    "SeriesNumber": 11,
    "ShimSetting": [
      1953,
      -688,
      -7592,
      601,
      79,
      -79,
      -271,
      -26
    ],
    "SliceThickness": 2.5,
    "SliceTiming": [
      1.9525,
      1.8975,
      1.84,
      1.785,
      1.73,
      1.675,
      1.6175,
      1.5625,
      1.5075,
      1.45,
      1.395,
      1.34,
      1.2825,
      1.2275,
      1.1725,
      1.115,
      1.06,
      1.005,
      0.95,
      0.8925,
      0.8375,
      0.7825,
      0.725,
      0.67,
      0.615,
      0.5575,
      0.5025,
      0.4475,
      0.3925,
      0.335,
      0.28,
      0.225,
      0.1675,
      0.1125,
      0.0575,
      0
    ],
    "SoftwareVersions": "syngo_MR_B19",
    "SpacingBetweenSlices": 3,
    "StationName": "MRC35450",
    "TaskName": "cardgame",
    "TotalReadoutTime": 0.0314901,
    "TxRefAmp": 348.97,
    "dataset": "<unset>",
    "dcmmeta_affine": [
      [
        -3.0,
        0.0,
        0.0,
        102.0
      ],
      [
        0.0,
        2.9871740341186523,
        -0.2771117389202118,
        -73.3883056640625
      ],
      [
        0.0,
        0.2771117389202118,
        2.9871740341186523,
        -46.50497817993164
      ],
      [
        0.0,
        0.0,
        0.0,
        1.0
      ]
    ],
    "dcmmeta_reorient_transform": [
      [
        0.0,
        -1.0,
        0.0,
        67.0
      ],
      [
        1.0,
        0.0,
        0.0,
        0.0
      ],
      [
        0.0,
        0.0,
        1.0,
        0.0
      ],
      [
        0.0,
        0.0,
        0.0,
        1.0
      ]
    ],
    "dcmmeta_shape": [
      68,
      68,
      36,
      258
    ],
    "dcmmeta_slice_dim": 2,
    "dcmmeta_version": 0.6,
    "global": {
      "const": {
        "AcquisitionMatrix": [
          68,
          0,
          0,
          68
        ],
        "AngioFlag": "N",
        "BitsAllocated": 16,
        "BitsStored": 12,
        "Columns": 408,
        "EchoNumbers": 1,
        "EchoTime": 23.0,
        "EchoTrainLength": 1,
        "FlipAngle": 76.0,
        "HighBit": 11,
        "ImageOrientationPatient": [
          1.0,
          0.0,
          0.0,
          0.0,
          0.99572469889668,
          -0.0923705797704
        ],
        "ImagePositionPatient": [
          -612.0,
          -634.57195604764,
          19.170504292115
        ],
        "ImageType": [
          "ORIGINAL",
          "PRIMARY",
          "M",
          "ND",
          "MOSAIC"
        ],
        "ImagedNucleus": "1H",
        "ImagingFrequency": 123.218631,
        "InPlanePhaseEncodingDirection": "COL",
        "MRAcquisitionType": "2D",
        "MagneticFieldStrength": 3.0,
        "Manufacturer": "SIEMENS",
        "ManufacturerModelName": "TrioTim",
        "Modality": "MR",
        "NumberOfAverages": 1.0,
        "NumberOfPhaseEncodingSteps": 68,
        "PercentPhaseFieldOfView": 100.0,
        "PercentSampling": 100.0,
        "PerformedProcedureStepStartTime": "111557.671000",
        "PhotometricInterpretation": "MONOCHROME2",
        "PixelBandwidth": 2451.0,
        "PixelRepresentation": 0,
        "PixelSpacing": [
          3.0,
          3.0
        ],
        "ProtocolName": "ep2d_bold_CardGameEPI_3",
        "RepetitionTime": 2000.0,
        "Rows": 408,
        "SAR": 0.19699197988621,
        "SamplesPerPixel": 1,
        "ScanOptions": "FS",
        "ScanningSequence": "EP",
        "SequenceName": "*epfid2d1_68",
        "SequenceVariant": "SK",
        "SeriesDescription": "ep2d_bold_CardGameEPI_3",
        "SeriesNumber": 11,
        "SeriesTime": "122651.125000",
        "SliceLocation": -39.527234872167,
        "SliceThickness": 2.5,
        "SmallestImagePixelValue": 0,
        "SoftwareVersions": "syngo MR B19",
        "SpacingBetweenSlices": 3.0000000236946,
        "SpecificCharacterSet": "ISO_IR 100",
        "StudyID": "1",
        "StudyTime": "111557.562000",
        "TransmitCoilName": "Body",
        "VariableFlipAngleFlag": "N",
        "WindowCenterWidthExplanation": "Algo1",
        "dBdt": 0.0
      },
      "slices": {}
    },
    "modality": "bold",
    "run_id": 3,
    "subject_id": "228",
    "task_id": "cardgame",
    "time": {
      "samples": {
        "AcquisitionNumber": [
          1,
          2,
          3,
          4,
          5,
          6,
          7,
          8,
          9,
          10,
          11,
          12,
          13,
          14,
          15,
          16,
          17,
          18,
          19,
          20,
          21,
          22,
          23,
          24,
          25,
          26,
          27,
          28,
          29,
          30,
          31,
          32,
          33,
          34,
          35,
          36,
          37,
          38,
          39,
          40,
          41,
          42,
          43,
          44,
          45,
          46,
          47,
          48,
          49,
          50,
          51,
          52,
          53,
          54,
          55,
          56,
          57,
          58,
          59,
          60,
          61,
          62,
          63,
          64,
          65,
          66,
          67,
          68,
          69,
          70,
          71,
          72,
          73,
          74,
          75,
          76,
          77,
          78,
          79,
          80,
          81,
          82,
          83,
          84,
          85,
          86,
          87,
          88,
          89,
          90,
          91,
          92,
          93,
          94,
          95,
          96,
          97,
          98,
          99,
          100,
          101,
          102,
          103,
          104,
          105,
          106,
          107,
          108,
          109,
          110,
          111,
          112,
          113,
          114,
          115,
          116,
          117,
          118,
          119,
          120,
          121,
          122,
          123,
          124,
          125,
          126,
          127,
          128,
          129,
          130,
          131,
          132,
          133,
          134,
          135,
          136,
          137,
          138,
          139,
          140,
          141,
          142,
          143,
          144,
          145,
          146,
          147,
          148,
          149,
          150,
          151,
          152,
          153,
          154,
          155,
          156,
          157,
          158,
          159,
          160,
          161,
          162,
          163,
          164,
          165,
          166,
          167,
          168,
          169,
          170,
          171,
          172,
          173,
          174,
          175,
          176,
          177,
          178,
          179,
          180,
          181,
          182,
          183,
          184,
          185,
          186,
          187,
          188,
          189,
          190,
          191,
          192,
          193,
          194,
          195,
          196,
          197,
          198,
          199,
          200,
          201,
          202,
          203,
          204,
          205,
          206,
          207,
          208,
          209,
          210,
          211,
          212,
          213,
          214,
          215,
          216,
          217,
          218,
          219,
          220,
          221,
          222,
          223,
          224,
          225,
          226,
          227,
          228,
          229,
          230,
          231,
          232,
          233,
          234,
          235,
          236,
          237,
          238,
          239,
          240,
          241,
          242,
          243,
          244,
          245,
          246,
          247,
          248,
          249,
          250,
          251,
          252,
          253,
          254,
          255,
          256,
          257,
          258
        ],
        "AcquisitionTime": [
          "122639.540000",
          "122641.547500",
          "122643.555000",
          "122645.565000",
          "122647.572500",
          "122649.580000",
          "122651.587500",
          "122653.597500",
          "122655.605000",
          "122657.612500",
          "122659.620000",
          "122701.627500",
          "122703.637500",
          "122705.645000",
          "122707.652500",
          "122709.660000",
          "122711.667500",
          "122713.677500",
          "122715.685000",
          "122717.692500",
          "122719.700000",
          "122721.710000",
          "122723.717500",
          "122725.725000",
          "122727.732500",
          "122729.740000",
          "122731.750000",
          "122733.757500",
          "122735.765000",
          "122737.772500",
          "122739.780000",
          "122741.790000",
          "122743.797500",
          "122745.805000",
          "122747.812500",
          "122749.822500",
          "122751.830000",
          "122753.837500",
          "122755.845000",
          "122757.852500",
          "122759.862500",
          "122801.870000",
          "122803.877500",
          "122805.885000",
          "122807.892500",
          "122809.902500",
          "122811.910000",
          "122813.917500",
          "122815.925000",
          "122817.932500",
          "122819.942500",
          "122821.950000",
          "122823.957500",
          "122825.965000",
          "122827.975000",
          "122829.982500",
          "122831.990000",
          "122833.997500",
          "122836.005000",
          "122838.015000",
          "122840.022500",
          "122842.030000",
          "122844.037500",
          "122846.045000",
          "122848.055000",
          "122850.062500",
          "122852.070000",
          "122854.077500",
          "122856.087500",
          "122858.095000",
          "122900.102500",
          "122902.110000",
          "122904.117500",
          "122906.127500",
          "122908.135000",
          "122910.142500",
          "122912.150000",
          "122914.157500",
          "122916.167500",
          "122918.175000",
          "122920.182500",
          "122922.190000",
          "122924.200000",
          "122926.207500",
          "122928.215000",
          "122930.222500",
          "122932.230000",
          "122934.240000",
          "122936.247500",
          "122938.255000",
          "122940.262500",
          "122942.270000",
          "122944.280000",
          "122946.287500",
          "122948.295000",
          "122950.302500",
          "122952.312500",
          "122954.320000",
          "122956.327500",
          "122958.335000",
          "123000.342500",
          "123002.352500",
          "123004.360000",
          "123006.367500",
          "123008.375000",
          "123010.382500",
          "123012.392500",
          "123014.400000",
          "123016.407500",
          "123018.415000",
          "123020.422500",
          "123022.432500",
          "123024.440000",
          "123026.447500",
          "123028.455000",
          "123030.465000",
          "123032.472500",
          "123034.480000",
          "123036.487500",
          "123038.495000",
          "123040.505000",
          "123042.512500",
          "123044.520000",
          "123046.527500",
          "123048.535000",
          "123050.545000",
          "123052.552500",
          "123054.560000",
          "123056.567500",
          "123058.577500",
          "123100.585000",
          "123102.592500",
          "123104.600000",
          "123106.607500",
          "123108.617500",
          "123110.625000",
          "123112.632500",
          "123114.640000",
          "123116.647500",
          "123118.657500",
          "123120.665000",
          "123122.672500",
          "123124.680000",
          "123126.690000",
          "123128.697500",
          "123130.705000",
          "123132.712500",
          "123134.720000",
          "123136.730000",
          "123138.737500",
          "123140.745000",
          "123142.752500",
          "123144.760000",
          "123146.770000",
          "123148.777500",
          "123150.785000",
          "123152.792500",
          "123154.800000",
          "123156.810000",
          "123158.817500",
          "123200.825000",
          "123202.832500",
          "123204.842500",
          "123206.850000",
          "123208.857500",
          "123210.865000",
          "123212.872500",
          "123214.882500",
          "123216.890000",
          "123218.897500",
          "123220.905000",
          "123222.912500",
          "123224.922500",
          "123226.930000",
          "123228.937500",
          "123230.945000",
          "123232.955000",
          "123234.962500",
          "123236.970000",
          "123238.977500",
          "123240.985000",
          "123242.995000",
          "123245.002500",
          "123247.010000",
          "123249.017500",
          "123251.025000",
          "123253.035000",
          "123255.042500",
          "123257.050000",
          "123259.057500",
          "123301.067500",
          "123303.075000",
          "123305.082500",
          "123307.090000",
          "123309.097500",
          "123311.107500",
          "123313.115000",
          "123315.122500",
          "123317.130000",
          "123319.137500",
          "123321.147500",
          "123323.155000",
          "123325.162500",
          "123327.170000",
          "123329.177500",
          "123331.187500",
          "123333.195000",
          "123335.202500",
          "123337.210000",
          "123339.220000",
          "123341.227500",
          "123343.235000",
          "123345.242500",
          "123347.250000",
          "123349.260000",
          "123351.267500",
          "123353.275000",
          "123355.282500",
          "123357.290000",
          "123359.300000",
          "123401.307500",
          "123403.315000",
          "123405.322500",
          "123407.332500",
          "123409.340000",
          "123411.347500",
          "123413.355000",
          "123415.362500",
          "123417.372500",
          "123419.380000",
          "123421.387500",
          "123423.395000",
          "123425.402500",
          "123427.412500",
          "123429.420000",
          "123431.427500",
          "123433.435000",
          "123435.445000",
          "123437.452500",
          "123439.460000",
          "123441.467500",
          "123443.475000",
          "123445.485000",
          "123447.492500",
          "123449.500000",
          "123451.507500",
          "123453.515000",
          "123455.525000",
          "123457.532500",
          "123459.540000",
          "123501.547500",
          "123503.555000",
          "123505.565000",
          "123507.572500",
          "123509.580000",
          "123511.587500",
          "123513.597500",
          "123515.605000"
        ],
        "ContentTime": [
          "122651.125000",
          "122651.125000",
          "122651.140000",
          "122651.140000",
          "122651.140000",
          "122651.140000",
          "122731.125000",
          "122731.125000",
          "122731.125000",
          "122731.125000",
          "122731.140000",
          "122731.140000",
          "122731.140000",
          "122731.140000",
          "122731.140000",
          "122731.140000",
          "122731.140000",
          "122731.140000",
          "122731.156000",
          "122731.156000",
          "122731.156000",
          "122731.156000",
          "122731.156000",
          "122731.156000",
          "122731.171000",
          "122731.171000",
          "122811.125000",
          "122811.125000",
          "122811.125000",
          "122811.125000",
          "122811.125000",
          "122811.140000",
          "122811.140000",
          "122811.140000",
          "122811.140000",
          "122811.140000",
          "122811.140000",
          "122811.140000",
          "122811.156000",
          "122811.156000",
          "122811.156000",
          "122811.156000",
          "122811.156000",
          "122811.156000",
          "122811.156000",
          "122811.156000",
          "122851.125000",
          "122851.125000",
          "122851.125000",
          "122851.125000",
          "122851.125000",
          "122851.140000",
          "122851.140000",
          "122851.140000",
          "122851.140000",
          "122851.140000",
          "122851.140000",
          "122851.140000",
          "122851.156000",
          "122851.156000",
          "122851.156000",
          "122851.156000",
          "122851.156000",
          "122851.156000",
          "122851.156000",
          "122851.156000",
          "122931.125000",
          "122931.125000",
          "122931.125000",
          "122931.125000",
          "122931.140000",
          "122931.140000",
          "122931.140000",
          "122931.140000",
          "122931.140000",
          "122931.140000",
          "122931.140000",
          "122931.156000",
          "122931.156000",
          "122931.156000",
          "122931.156000",
          "122931.156000",
          "122931.156000",
          "122931.156000",
          "122931.156000",
          "122931.171000",
          "123011.125000",
          "123011.125000",
          "123011.125000",
          "123011.125000",
          "123011.140000",
          "123011.140000",
          "123011.140000",
          "123011.140000",
          "123011.140000",
          "123011.140000",
          "123011.140000",
          "123011.140000",
          "123011.156000",
          "123011.156000",
          "123011.156000",
          "123011.156000",
          "123011.156000",
          "123011.156000",
          "123011.156000",
          "123011.171000",
          "123051.125000",
          "123051.125000",
          "123051.125000",
          "123051.125000",
          "123051.125000",
          "123051.140000",
          "123051.140000",
          "123051.140000",
          "123051.140000",
          "123051.140000",
          "123051.140000",
          "123051.140000",
          "123051.156000",
          "123051.156000",
          "123051.156000",
          "123051.156000",
          "123051.156000",
          "123051.156000",
          "123051.156000",
          "123051.171000",
          "123131.125000",
          "123131.125000",
          "123131.125000",
          "123131.125000",
          "123131.125000",
          "123131.140000",
          "123131.140000",
          "123131.140000",
          "123131.140000",
          "123131.140000",
          "123131.140000",
          "123131.140000",
          "123131.156000",
          "123131.156000",
          "123131.156000",
          "123131.156000",
          "123131.156000",
          "123131.156000",
          "123131.156000",
          "123131.156000",
          "123211.125000",
          "123211.125000",
          "123211.125000",
          "123211.125000",
          "123211.125000",
          "123211.140000",
          "123211.140000",
          "123211.140000",
          "123211.140000",
          "123211.140000",
          "123211.140000",
          "123211.140000",
          "123211.156000",
          "123211.156000",
          "123211.156000",
          "123211.156000",
          "123211.156000",
          "123211.156000",
          "123211.156000",
          "123211.171000",
          "123251.125000",
          "123251.125000",
          "123251.125000",
          "123251.125000",
          "123251.125000",
          "123251.140000",
          "123251.140000",
          "123251.140000",
          "123251.140000",
          "123251.140000",
          "123251.140000",
          "123251.140000",
          "123251.156000",
          "123251.156000",
          "123251.156000",
          "123251.156000",
          "123251.156000",
          "123251.156000",
          "123251.171000",
          "123251.171000",
          "123331.125000",
          "123331.125000",
          "123331.125000",
          "123331.125000",
          "123331.140000",
          "123331.140000",
          "123331.140000",
          "123331.140000",
          "123331.140000",
          "123331.140000",
          "123331.140000",
          "123331.140000",
          "123331.156000",
          "123331.156000",
          "123331.156000",
          "123331.156000",
          "123331.156000",
          "123331.156000",
          "123331.156000",
          "123331.171000",
          "123411.125000",
          "123411.125000",
          "123411.125000",
          "123411.125000",
          "123411.125000",
          "123411.140000",
          "123411.140000",
          "123411.140000",
          "123411.140000",
          "123411.140000",
          "123411.140000",
          "123411.140000",
          "123411.156000",
          "123411.156000",
          "123411.156000",
          "123411.156000",
          "123411.156000",
          "123411.156000",
          "123411.156000",
          "123411.156000",
          "123451.125000",
          "123451.125000",
          "123451.125000",
          "123451.125000",
          "123451.125000",
          "123451.140000",
          "123451.140000",
          "123451.140000",
          "123451.140000",
          "123451.140000",
          "123451.140000",
          "123451.140000",
          "123451.156000",
          "123451.156000",
          "123451.156000",
          "123451.156000",
          "123451.156000",
          "123451.156000",
          "123451.156000",
          "123451.171000",
          "123514.843000",
          "123514.843000",
          "123514.843000",
          "123514.843000",
          "123514.843000",
          "123514.859000",
          "123514.859000",
          "123514.859000",
          "123514.859000",
          "123514.859000",
          "123514.859000",
          "123514.859000"
        ],
        "InstanceCreationTime": [
          "122651.125000",
          "122651.125000",
          "122651.140000",
          "122651.140000",
          "122651.140000",
          "122651.140000",
          "122731.125000",
          "122731.125000",
          "122731.125000",
          "122731.125000",
          "122731.140000",
          "122731.140000",
          "122731.140000",
          "122731.140000",
          "122731.140000",
          "122731.140000",
          "122731.140000",
          "122731.140000",
          "122731.156000",
          "122731.156000",
          "122731.156000",
          "122731.156000",
          "122731.156000",
          "122731.156000",
          "122731.171000",
          "122731.171000",
          "122811.125000",
          "122811.125000",
          "122811.125000",
          "122811.125000",
          "122811.125000",
          "122811.140000",
          "122811.140000",
          "122811.140000",
          "122811.140000",
          "122811.140000",
          "122811.140000",
          "122811.140000",
          "122811.156000",
          "122811.156000",
          "122811.156000",
          "122811.156000",
          "122811.156000",
          "122811.156000",
          "122811.156000",
          "122811.156000",
          "122851.125000",
          "122851.125000",
          "122851.125000",
          "122851.125000",
          "122851.125000",
          "122851.140000",
          "122851.140000",
          "122851.140000",
          "122851.140000",
          "122851.140000",
          "122851.140000",
          "122851.140000",
          "122851.156000",
          "122851.156000",
          "122851.156000",
          "122851.156000",
          "122851.156000",
          "122851.156000",
          "122851.156000",
          "122851.156000",
          "122931.125000",
          "122931.125000",
          "122931.125000",
          "122931.125000",
          "122931.140000",
          "122931.140000",
          "122931.140000",
          "122931.140000",
          "122931.140000",
          "122931.140000",
          "122931.140000",
          "122931.156000",
          "122931.156000",
          "122931.156000",
          "122931.156000",
          "122931.156000",
          "122931.156000",
          "122931.156000",
          "122931.156000",
          "122931.171000",
          "123011.125000",
          "123011.125000",
          "123011.125000",
          "123011.125000",
          "123011.140000",
          "123011.140000",
          "123011.140000",
          "123011.140000",
          "123011.140000",
          "123011.140000",
          "123011.140000",
          "123011.140000",
          "123011.156000",
          "123011.156000",
          "123011.156000",
          "123011.156000",
          "123011.156000",
          "123011.156000",
          "123011.156000",
          "123011.171000",
          "123051.125000",
          "123051.125000",
          "123051.125000",
          "123051.125000",
          "123051.125000",
          "123051.140000",
          "123051.140000",
          "123051.140000",
          "123051.140000",
          "123051.140000",
          "123051.140000",
          "123051.140000",
          "123051.156000",
          "123051.156000",
          "123051.156000",
          "123051.156000",
          "123051.156000",
          "123051.156000",
          "123051.156000",
          "123051.171000",
          "123131.125000",
          "123131.125000",
          "123131.125000",
          "123131.125000",
          "123131.125000",
          "123131.140000",
          "123131.140000",
          "123131.140000",
          "123131.140000",
          "123131.140000",
          "123131.140000",
          "123131.140000",
          "123131.156000",
          "123131.156000",
          "123131.156000",
          "123131.156000",
          "123131.156000",
          "123131.156000",
          "123131.156000",
          "123131.156000",
          "123211.125000",
          "123211.125000",
          "123211.125000",
          "123211.125000",
          "123211.125000",
          "123211.140000",
          "123211.140000",
          "123211.140000",
          "123211.140000",
          "123211.140000",
          "123211.140000",
          "123211.140000",
          "123211.156000",
          "123211.156000",
          "123211.156000",
          "123211.156000",
          "123211.156000",
          "123211.156000",
          "123211.156000",
          "123211.171000",
          "123251.125000",
          "123251.125000",
          "123251.125000",
          "123251.125000",
          "123251.125000",
          "123251.140000",
          "123251.140000",
          "123251.140000",
          "123251.140000",
          "123251.140000",
          "123251.140000",
          "123251.140000",
          "123251.156000",
          "123251.156000",
          "123251.156000",
          "123251.156000",
          "123251.156000",
          "123251.156000",
          "123251.171000",
          "123251.171000",
          "123331.125000",
          "123331.125000",
          "123331.125000",
          "123331.125000",
          "123331.140000",
          "123331.140000",
          "123331.140000",
          "123331.140000",
          "123331.140000",
          "123331.140000",
          "123331.140000",
          "123331.140000",
          "123331.156000",
          "123331.156000",
          "123331.156000",
          "123331.156000",
          "123331.156000",
          "123331.156000",
          "123331.156000",
          "123331.171000",
          "123411.125000",
          "123411.125000",
          "123411.125000",
          "123411.125000",
          "123411.125000",
          "123411.140000",
          "123411.140000",
          "123411.140000",
          "123411.140000",
          "123411.140000",
          "123411.140000",
          "123411.140000",
          "123411.156000",
          "123411.156000",
          "123411.156000",
          "123411.156000",
          "123411.156000",
          "123411.156000",
          "123411.156000",
