{
  "aor": 0.0012412790697674415,
  "aqi": 0.022419264728682168,
  "bids_meta": {
    "AcquisitionMatrixPE": 68,
    "AcquisitionNumber": 1,
    "AcquisitionTime": "12:52:39.405000",
    "BandwidthPerPixelPhaseEncode": 31.289,
    "BaseResolution": 68,
    "CogAtlasID": "TODO",
    "CoilString": "C:HEA;HEP",
    "ConversionSoftware": "dcm2niix",
    "ConversionSoftwareVersion": "v1.0.20190902",
    "DerivedVendorReportedEchoSpacing": 0.000470002,
    "DeviceSerialNumber": "35450",
    "DwellTime": 3e-06,
    "EchoTime": 0.023,
    "EffectiveEchoSpacing": 0.000470002,
    "FlipAngle": 76,
    "ImageOrientationPatientDICOM": [
      0.99961,
      -0.000389871,
      -0.0279189,
      2.40836e-08,
      0.999903,
      -0.0139622
    ],
    "ImageType": [
      "ORIGINAL",
      "PRIMARY",
      "M",
      "ND",
      "MOSAIC"
    ],
    "ImagingFrequency": 123.219,
    "InPlanePhaseEncodingDirectionDICOM": "COL",
    "InstitutionAddress": "Univeristy_Ave._197_Newark_North_East_US_07102-1814",
    "InstitutionName": "RUBIC",
    "InstitutionalDepartmentName": "Department",
    "MRAcquisitionType": "2D",
    "MagneticFieldStrength": 3,
    "Manufacturer": "Siemens",
    "ManufacturersModelName": "TrioTim",
    "Modality": "MR",
    "PartialFourier": 1,
    "PatientPosition": "HFS",
    "PercentPhaseFOV": 100,
    "PhaseEncodingDirection": "j-",
    "PhaseEncodingSteps": 68,
    "PhaseResolution": 1,
    "PixelBandwidth": 2451,
    "ProcedureStepDescription": "Krekelberg_David",
    "ProtocolName": "ep2d_bold_CardGameEPI_3",
    "PulseSequenceDetails": "%SiemensSeq%_ep2d_bold",
    "ReceiveCoilName": "HeadMatrix",
    "ReconMatrixPE": 68,
    "RepetitionTime": 2,
    "SAR": 0.184151,
    "ScanOptions": "FS",
    "ScanningSequence": "EP",
    "SequenceName": "_epfid2d1_68",
    "SequenceVariant": "SK",
    "SeriesDescription": "ep2d_bold_CardGameEPI_3",
    "SeriesNumber": 13,
    "ShimSetting": [
      1846,
      -631,
      -7541,
      786,
      10,
      -167,
      -415,
      -56
    ],
    "SliceThickness": 2.5,
    "SliceTiming": [
      1.9525,
      1.895,
      1.84,
      1.785,
      1.7275,
      1.6725,
      1.6175,
      1.56,
      1.505,
      1.45,
      1.395,
      1.3375,
      1.2825,
      1.2275,
      1.17,
      1.115,
      1.06,
      1.0025,
      0.9475,
      0.8925,
      0.8375,
      0.78,
      0.725,
      0.67,
      0.6125,
      0.5575,
      0.5025,
      0.445,
      0.39,
      0.335,
      0.2775,
      0.2225,
      0.1675,
      0.1125,
      0.055,
      0
    ],
    "SoftwareVersions": "syngo_MR_B19",
    "SpacingBetweenSlices": 3,
    "StationName": "MRC35450",
    "TaskName": "cardgame",
    "TotalReadoutTime": 0.0314901,
    "TxRefAmp": 354.428,
    "dataset": "<unset>",
    "dcmmeta_affine": [
      [
        -2.9988303184509277,
        7.225073517247438e-08,
        -0.08376491814851761,
        103.42611694335938
      ],
      [
        0.0011696132132783532,
        2.9997074604034424,
        -0.04187021031975746,
        -74.56857299804688
      ],
      [
        -0.08375675231218338,
        0.04188654199242592,
        2.998538017272949,
        -46.263179779052734
      ],
      [
        0.0,
        0.0,
        0.0,
        1.0
      ]
    ],
    "dcmmeta_reorient_transform": [
      [
        0.0,
        -1.0,
        0.0,
        67.0
      ],
      [
        1.0,
        0.0,
        0.0,
        0.0
      ],
      [
        0.0,
        0.0,
        1.0,
        0.0
      ],
      [
        0.0,
        0.0,
        0.0,
        1.0
      ]
    ],
    "dcmmeta_shape": [
      68,
      68,
      36,
      258
    ],
    "dcmmeta_slice_dim": 2,
    "dcmmeta_version": 0.6,
    "global": {
      "const": {
        "AcquisitionMatrix": [
          68,
          0,
          0,
          68
        ],
        "AngioFlag": "N",
        "BitsAllocated": 16,
        "BitsStored": 12,
        "Columns": 408,
        "EchoNumbers": 1,
        "EchoTime": 23.0,
        "EchoTrainLength": 1,
        "FlipAngle": 76.0,
        "HighBit": 11,
        "ImageOrientationPatient": [
          0.99961011500728,
          -0.0003898710552,
          -0.027918917882,
          2.4083578e-08,
          0.99990252400351,
          -0.0139621807539
        ],
        "ImagePositionPatient": [
          -613.22729112042,
          -636.16328573389,
          -22.097420588902
        ],
        "ImageType": [
          "ORIGINAL",
          "PRIMARY",
          "M",
          "ND",
          "MOSAIC"
        ],
        "ImagedNucleus": "1H",
        "ImagingFrequency": 123.218588,
        "InPlanePhaseEncodingDirection": "COL",
        "MRAcquisitionType": "2D",
        "MagneticFieldStrength": 3.0,
        "Manufacturer": "SIEMENS",
        "ManufacturerModelName": "TrioTim",
        "Modality": "MR",
        "NumberOfAverages": 1.0,
        "NumberOfPhaseEncodingSteps": 68,
        "PercentPhaseFieldOfView": 100.0,
        "PercentSampling": 100.0,
        "PerformedProcedureStepStartTime": "112717.109000",
        "PhotometricInterpretation": "MONOCHROME2",
        "PixelBandwidth": 2451.0,
        "PixelRepresentation": 0,
        "PixelSpacing": [
          3.0,
          3.0
        ],
        "ProtocolName": "ep2d_bold_CardGameEPI_3",
        "RepetitionTime": 2000.0,
        "Rows": 408,
        "SAR": 0.18415067624431,
        "SamplesPerPixel": 1,
        "ScanOptions": "FS",
        "ScanningSequence": "EP",
        "SequenceName": "*epfid2d1_68",
        "SequenceVariant": "SK",
        "SeriesDescription": "ep2d_bold_CardGameEPI_3",
        "SeriesNumber": 13,
        "SeriesTime": "125323.890000",
        "SliceLocation": -48.087726922221,
        "SliceThickness": 2.5,
        "SmallestImagePixelValue": 0,
        "SoftwareVersions": "syngo MR B19",
        "SpacingBetweenSlices": 2.9999999582892,
        "SpecificCharacterSet": "ISO_IR 100",
        "StudyID": "1",
        "StudyTime": "112717.000000",
        "TransmitCoilName": "Body",
        "VariableFlipAngleFlag": "N",
        "WindowCenterWidthExplanation": "Algo1",
        "dBdt": 0.0
      },
      "slices": {}
    },
    "modality": "bold",
    "run_id": 3,
    "subject_id": "220",
    "task_id": "cardgame",
    "time": {
      "samples": {
        "AcquisitionNumber": [
          1,
          2,
          3,
          4,
          5,
          6,
          7,
          8,
          9,
          10,
          11,
          12,
          13,
          14,
          15,
          16,
          17,
          18,
          19,
          20,
          21,
          22,
          23,
          24,
          25,
          26,
          27,
          28,
          29,
          30,
          31,
          32,
          33,
          34,
          35,
          36,
          37,
          38,
          39,
          40,
          41,
          42,
          43,
          44,
          45,
          46,
          47,
          48,
          49,
          50,
          51,
          52,
          53,
          54,
          55,
          56,
          57,
          58,
          59,
          60,
          61,
          62,
          63,
          64,
          65,
          66,
          67,
          68,
          69,
          70,
          71,
          72,
          73,
          74,
          75,
          76,
          77,
          78,
          79,
          80,
          81,
          82,
          83,
          84,
          85,
          86,
          87,
          88,
          89,
          90,
          91,
          92,
          93,
          94,
          95,
          96,
          97,
          98,
          99,
          100,
          101,
          102,
          103,
          104,
          105,
          106,
          107,
          108,
          109,
          110,
          111,
          112,
          113,
          114,
          115,
          116,
          117,
          118,
          119,
          120,
          121,
          122,
          123,
          124,
          125,
          126,
          127,
          128,
          129,
          130,
          131,
          132,
          133,
          134,
          135,
          136,
          137,
          138,
          139,
          140,
          141,
          142,
          143,
          144,
          145,
          146,
          147,
          148,
          149,
          150,
          151,
          152,
          153,
          154,
          155,
          156,
          157,
          158,
          159,
          160,
          161,
          162,
          163,
          164,
          165,
          166,
          167,
          168,
          169,
          170,
          171,
          172,
          173,
          174,
          175,
          176,
          177,
          178,
          179,
          180,
          181,
          182,
          183,
          184,
          185,
          186,
          187,
          188,
          189,
          190,
          191,
          192,
          193,
          194,
          195,
          196,
          197,
          198,
          199,
          200,
          201,
          202,
          203,
          204,
          205,
          206,
          207,
          208,
          209,
          210,
          211,
          212,
          213,
          214,
          215,
          216,
          217,
          218,
          219,
          220,
          221,
          222,
          223,
          224,
          225,
          226,
          227,
          228,
          229,
          230,
          231,
          232,
          233,
          234,
          235,
          236,
          237,
          238,
          239,
          240,
          241,
          242,
          243,
          244,
          245,
          246,
          247,
          248,
          249,
          250,
          251,
          252,
          253,
          254,
          255,
          256,
          257,
          258
        ],
        "AcquisitionTime": [
          "125239.405000",
          "125241.412500",
          "125243.420000",
          "125245.427500",
          "125247.435000",
          "125249.445000",
          "125251.452500",
          "125253.460000",
          "125255.467500",
          "125257.477500",
          "125259.485000",
          "125301.492500",
          "125303.500000",
          "125305.507500",
          "125307.517500",
          "125309.525000",
          "125311.532500",
          "125313.540000",
          "125315.547500",
          "125317.557500",
          "125319.565000",
          "125321.572500",
          "125323.580000",
          "125325.590000",
          "125327.597500",
          "125329.605000",
          "125331.612500",
          "125333.620000",
          "125335.630000",
          "125337.637500",
          "125339.645000",
          "125341.652500",
          "125343.660000",
          "125345.670000",
          "125347.677500",
          "125349.685000",
          "125351.692500",
          "125353.700000",
          "125355.710000",
          "125357.717500",
          "125359.725000",
          "125401.732500",
          "125403.742500",
          "125405.750000",
          "125407.757500",
          "125409.765000",
          "125411.772500",
          "125413.782500",
          "125415.790000",
          "125417.797500",
          "125419.805000",
          "125421.812500",
          "125423.822500",
          "125425.830000",
          "125427.837500",
          "125429.845000",
          "125431.855000",
          "125433.862500",
          "125435.870000",
          "125437.877500",
          "125439.885000",
          "125441.895000",
          "125443.902500",
          "125445.910000",
          "125447.917500",
          "125449.925000",
          "125451.935000",
          "125453.942500",
          "125455.950000",
          "125457.957500",
          "125459.967500",
          "125501.975000",
          "125503.982500",
          "125505.990000",
          "125507.997500",
          "125510.007500",
          "125512.015000",
          "125514.022500",
          "125516.030000",
          "125518.037500",
          "125520.047500",
          "125522.055000",
          "125524.062500",
          "125526.070000",
          "125528.077500",
          "125530.087500",
          "125532.095000",
          "125534.102500",
          "125536.110000",
          "125538.120000",
          "125540.127500",
          "125542.135000",
          "125544.142500",
          "125546.150000",
          "125548.160000",
          "125550.167500",
          "125552.175000",
          "125554.182500",
          "125556.190000",
          "125558.200000",
          "125600.207500",
          "125602.215000",
          "125604.222500",
          "125606.232500",
          "125608.240000",
          "125610.247500",
          "125612.255000",
          "125614.262500",
          "125616.272500",
          "125618.280000",
          "125620.287500",
          "125622.295000",
          "125624.302500",
          "125626.312500",
          "125628.320000",
          "125630.327500",
          "125632.335000",
          "125634.345000",
          "125636.352500",
          "125638.360000",
          "125640.367500",
          "125642.375000",
          "125644.385000",
          "125646.392500",
          "125648.400000",
          "125650.407500",
          "125652.415000",
          "125654.425000",
          "125656.432500",
          "125658.440000",
          "125700.447500",
          "125702.455000",
          "125704.465000",
          "125706.472500",
          "125708.480000",
          "125710.487500",
          "125712.497500",
          "125714.505000",
          "125716.512500",
          "125718.520000",
          "125720.527500",
          "125722.537500",
          "125724.545000",
          "125726.552500",
          "125728.560000",
          "125730.567500",
          "125732.577500",
          "125734.585000",
          "125736.592500",
          "125738.600000",
          "125740.610000",
          "125742.617500",
          "125744.625000",
          "125746.632500",
          "125748.640000",
          "125750.650000",
          "125752.657500",
          "125754.665000",
          "125756.672500",
          "125758.680000",
          "125800.690000",
          "125802.697500",
          "125804.705000",
          "125806.712500",
          "125808.722500",
          "125810.730000",
          "125812.737500",
          "125814.745000",
          "125816.752500",
          "125818.762500",
          "125820.770000",
          "125822.777500",
          "125824.785000",
          "125826.792500",
          "125828.802500",
          "125830.810000",
          "125832.817500",
          "125834.825000",
          "125836.832500",
          "125838.842500",
          "125840.850000",
          "125842.857500",
          "125844.865000",
          "125846.875000",
          "125848.882500",
          "125850.890000",
          "125852.897500",
          "125854.905000",
          "125856.915000",
          "125858.922500",
          "125900.930000",
          "125902.937500",
          "125904.945000",
          "125906.955000",
          "125908.962500",
          "125910.970000",
          "125912.977500",
          "125914.987500",
          "125916.995000",
          "125919.002500",
          "125921.010000",
          "125923.017500",
          "125925.027500",
          "125927.035000",
          "125929.042500",
          "125931.050000",
          "125933.057500",
          "125935.067500",
          "125937.075000",
          "125939.082500",
          "125941.090000",
          "125943.100000",
          "125945.107500",
          "125947.115000",
          "125949.122500",
          "125951.130000",
          "125953.140000",
          "125955.147500",
          "125957.155000",
          "125959.162500",
          "130001.170000",
          "130003.180000",
          "130005.187500",
          "130007.195000",
          "130009.202500",
          "130011.212500",
          "130013.220000",
          "130015.227500",
          "130017.235000",
          "130019.242500",
          "130021.252500",
          "130023.260000",
          "130025.267500",
          "130027.275000",
          "130029.282500",
          "130031.292500",
          "130033.300000",
          "130035.307500",
          "130037.315000",
          "130039.322500",
          "130041.332500",
          "130043.340000",
          "130045.347500",
          "130047.355000",
          "130049.365000",
          "130051.372500",
          "130053.380000",
          "130055.387500",
          "130057.395000",
          "130059.405000",
          "130101.412500",
          "130103.420000",
          "130105.427500",
          "130107.435000",
          "130109.445000",
          "130111.452500",
          "130113.460000",
          "130115.467500"
        ],
        "ContentTime": [
          "125323.890000",
          "125323.890000",
          "125323.890000",
          "125323.890000",
          "125323.890000",
          "125323.906000",
          "125323.906000",
          "125323.906000",
          "125323.906000",
          "125323.906000",
          "125323.906000",
          "125323.906000",
          "125323.906000",
          "125323.921000",
          "125323.921000",
          "125323.921000",
          "125323.921000",
          "125323.921000",
          "125323.921000",
          "125323.937000",
          "125323.937000",
          "125323.937000",
          "125403.875000",
          "125403.890000",
          "125403.890000",
          "125403.890000",
          "125403.890000",
          "125403.890000",
          "125403.890000",
          "125403.890000",
          "125403.906000",
          "125403.906000",
          "125403.906000",
          "125403.906000",
          "125403.906000",
          "125403.906000",
          "125403.906000",
          "125403.906000",
          "125403.921000",
          "125403.921000",
          "125403.921000",
          "125403.921000",
          "125443.875000",
          "125443.890000",
          "125443.890000",
          "125443.890000",
          "125443.890000",
          "125443.890000",
          "125443.890000",
          "125443.890000",
          "125443.906000",
          "125443.906000",
          "125443.906000",
          "125443.906000",
          "125443.906000",
          "125443.906000",
          "125443.921000",
          "125443.921000",
          "125443.921000",
          "125443.921000",
          "125443.921000",
          "125443.921000",
          "125523.875000",
          "125523.890000",
          "125523.890000",
          "125523.890000",
          "125523.890000",
          "125523.890000",
          "125523.890000",
          "125523.890000",
          "125523.906000",
          "125523.906000",
          "125523.906000",
          "125523.906000",
          "125523.906000",
          "125523.906000",
          "125523.906000",
          "125523.906000",
          "125523.921000",
          "125523.921000",
          "125523.921000",
          "125523.921000",
          "125603.875000",
          "125603.890000",
          "125603.890000",
          "125603.890000",
          "125603.890000",
          "125603.890000",
          "125603.890000",
          "125603.890000",
          "125603.906000",
          "125603.906000",
          "125603.906000",
          "125603.906000",
          "125603.906000",
          "125603.906000",
          "125603.921000",
          "125603.921000",
          "125603.921000",
          "125603.921000",
          "125603.921000",
          "125603.921000",
          "125643.875000",
          "125643.890000",
          "125643.890000",
          "125643.890000",
          "125643.890000",
          "125643.890000",
          "125643.890000",
          "125643.890000",
          "125643.906000",
          "125643.906000",
          "125643.906000",
          "125643.906000",
          "125643.906000",
          "125643.906000",
          "125643.906000",
          "125643.921000",
          "125643.921000",
          "125643.921000",
          "125643.921000",
          "125643.921000",
          "125723.875000",
          "125723.890000",
          "125723.890000",
          "125723.890000",
          "125723.890000",
          "125723.890000",
          "125723.890000",
          "125723.890000",
          "125723.906000",
          "125723.906000",
          "125723.906000",
          "125723.906000",
          "125723.906000",
          "125723.906000",
          "125723.906000",
          "125723.921000",
          "125723.921000",
          "125723.921000",
          "125723.921000",
          "125723.921000",
          "125803.875000",
          "125803.890000",
          "125803.890000",
          "125803.890000",
          "125803.890000",
          "125803.890000",
          "125803.890000",
          "125803.890000",
          "125803.906000",
          "125803.906000",
          "125803.906000",
          "125803.906000",
          "125803.906000",
          "125803.906000",
          "125803.906000",
          "125803.906000",
          "125803.921000",
          "125803.921000",
          "125803.921000",
          "125803.921000",
          "125843.875000",
          "125843.890000",
          "125843.890000",
          "125843.890000",
          "125843.890000",
          "125843.890000",
          "125843.890000",
          "125843.890000",
          "125843.906000",
          "125843.906000",
          "125843.906000",
          "125843.906000",
          "125843.906000",
          "125843.906000",
          "125843.906000",
          "125843.921000",
          "125843.921000",
          "125843.921000",
          "125843.921000",
          "125843.921000",
          "125903.875000",
          "125903.890000",
          "125903.890000",
          "125903.890000",
          "125903.890000",
          "125903.890000",
          "125903.890000",
          "125903.906000",
          "125903.906000",
          "125903.906000",
          "125943.875000",
          "125943.890000",
          "125943.890000",
          "125943.890000",
          "125943.890000",
          "125943.890000",
          "125943.890000",
          "125943.890000",
          "125943.906000",
          "125943.906000",
          "125943.906000",
          "125943.906000",
          "125943.906000",
          "125943.906000",
          "125943.906000",
          "125943.906000",
          "125943.921000",
          "125943.921000",
          "125943.921000",
          "125943.921000",
          "130023.875000",
          "130023.890000",
          "130023.890000",
          "130023.890000",
          "130023.890000",
          "130023.890000",
          "130023.890000",
          "130023.890000",
          "130023.906000",
          "130023.906000",
          "130023.906000",
          "130023.906000",
          "130023.906000",
          "130023.906000",
          "130023.906000",
          "130023.906000",
          "130023.921000",
          "130023.921000",
          "130023.921000",
          "130023.921000",
          "130103.875000",
          "130103.890000",
          "130103.890000",
          "130103.890000",
          "130103.890000",
          "130103.890000",
          "130103.890000",
          "130103.890000",
          "130103.906000",
          "130103.906000",
          "130103.906000",
          "130103.906000",
          "130103.906000",
          "130103.906000",
          "130103.906000",
          "130103.921000",
          "130103.921000",
          "130103.921000",
          "130103.921000",
          "130103.921000",
          "130114.078000",
          "130114.078000",
          "130114.078000",
          "130114.078000",
          "130114.093000",
          "130114.093000"
        ],
        "InstanceCreationTime": [
          "125323.890000",
          "125323.890000",
          "125323.890000",
          "125323.890000",
          "125323.890000",
          "125323.906000",
          "125323.906000",
          "125323.906000",
          "125323.906000",
          "125323.906000",
          "125323.906000",
          "125323.906000",
          "125323.906000",
          "125323.921000",
          "125323.921000",
          "125323.921000",
          "125323.921000",
          "125323.921000",
          "125323.921000",
          "125323.937000",
          "125323.937000",
          "125323.937000",
          "125403.875000",
          "125403.890000",
          "125403.890000",
          "125403.890000",
          "125403.890000",
          "125403.890000",
          "125403.890000",
          "125403.890000",
          "125403.906000",
          "125403.906000",
          "125403.906000",
          "125403.906000",
          "125403.906000",
          "125403.906000",
          "125403.906000",
          "125403.906000",
          "125403.921000",
          "125403.921000",
          "125403.921000",
          "125403.921000",
          "125443.875000",
          "125443.890000",
          "125443.890000",
          "125443.890000",
          "125443.890000",
          "125443.890000",
          "125443.890000",
          "125443.890000",
          "125443.906000",
          "125443.906000",
          "125443.906000",
          "125443.906000",
          "125443.906000",
          "125443.906000",
          "125443.921000",
          "125443.921000",
          "125443.921000",
          "125443.921000",
          "125443.921000",
          "125443.921000",
          "125523.875000",
          "125523.890000",
          "125523.890000",
          "125523.890000",
          "125523.890000",
          "125523.890000",
          "125523.890000",
          "125523.890000",
          "125523.906000",
          "125523.906000",
          "125523.906000",
          "125523.906000",
          "125523.906000",
          "125523.906000",
          "125523.906000",
          "125523.906000",
          "125523.921000",
          "125523.921000",
          "125523.921000",
          "125523.921000",
          "125603.875000",
          "125603.890000",
          "125603.890000",
          "125603.890000",
          "125603.890000",
          "125603.890000",
          "125603.890000",
          "125603.890000",
          "125603.906000",
          "125603.906000",
          "125603.906000",
          "125603.906000",
          "125603.906000",
          "125603.906000",
          "125603.921000",
          "125603.921000",
          "125603.921000",
          "125603.921000",
          "125603.921000",
          "125603.921000",
          "125643.875000",
          "125643.890000",
          "125643.890000",
          "125643.890000",
          "125643.890000",
          "125643.890000",
          "125643.890000",
          "125643.890000",
          "125643.906000",
          "125643.906000",
          "125643.906000",
          "125643.906000",
          "125643.906000",
          "125643.906000",
          "125643.906000",
          "125643.921000",
          "125643.921000",
          "125643.921000",
          "125643.921000",
          "125643.921000",
          "125723.875000",
          "125723.890000",
          "125723.890000",
          "125723.890000",
          "125723.890000",
          "125723.890000",
          "125723.890000",
          "125723.890000",
          "125723.906000",
          "125723.906000",
          "125723.906000",
          "125723.906000",
          "125723.906000",
          "125723.906000",
          "125723.906000",
          "125723.921000",
          "125723.921000",
          "125723.921000",
          "125723.921000",
          "125723.921000",
          "125803.875000",
          "125803.890000",
          "125803.890000",
          "125803.890000",
          "125803.890000",
          "125803.890000",
          "125803.890000",
          "125803.890000",
          "125803.906000",
          "125803.906000",
          "125803.906000",
          "125803.906000",
          "125803.906000",
          "125803.906000",
          "125803.906000",
          "125803.906000",
          "125803.921000",
          "125803.921000",
          "125803.921000",
          "125803.921000",
          "125843.875000",
          "125843.890000",
          "125843.890000",
          "125843.890000",
          "125843.890000",
          "125843.890000",
          "125843.890000",
          "125843.890000",
          "125843.906000",
          "125843.906000",
          "125843.906000",
          "125843.906000",
          "125843.906000",
          "125843.906000",
          "125843.906000",
          "125843.921000",
          "125843.921000",
          "125843.921000",
          "125843.921000",
          "125843.921000",
          "125903.875000",
          "125903.890000",
          "125903.890000",
          "125903.890000",
          "125903.890000",
          "125903.890000",
          "125903.890000",
          "125903.906000",
          "125903.906000",
          "125903.906000",
          "125943.875000",
          "125943.890000",
          "125943.890000",
          "125943.890000",
          "125943.890000",
          "125943.890000",
          "125943.890000",
          "125943.890000",
          "125943.906000",
          "125943.906000",
          "125943.906000",
          "125943.906000",
          "125943.906000",
          "125943.906000",
          "125943.906000",
          "125943.906000",
          "125943.921000",
          "125943.921000",
          "125943.921000",
          "125943.921000",
          "130023.875000",
          "130023.890000",
          "130023.890000",
          "130023.890000",
          "130023.890000",
