{
  "aor": 0.0005750420168067227,
  "aqi": 0.024135614705882352,
  "bids_meta": {
    "AcquisitionMatrixPE": 68,
    "AcquisitionNumber": 1,
    "AcquisitionTime": "12:23:32.587500",
    "BandwidthPerPixelPhaseEncode": 31.289,
    "BaseResolution": 68,
    "CogAtlasID": "TODO",
    "CoilString": "C:HEA;HEP",
    "ConversionSoftware": "dcm2niix",
    "ConversionSoftwareVersion": "v1.0.20190902",
    "DerivedVendorReportedEchoSpacing": 0.000470002,
    "DeviceSerialNumber": "35450",
    "DwellTime": 3e-06,
    "EchoTime": 0.023,
    "EffectiveEchoSpacing": 0.000470002,
    "FlipAngle": 76,
    "ImageOrientationPatientDICOM": [
      0.99961,
      -0.000389871,
      -0.0279189,
      2.40836e-08,
      0.999903,
      -0.0139622
    ],
    "ImageType": [
      "ORIGINAL",
      "PRIMARY",
      "M",
      "ND",
      "MOSAIC"
    ],
    "ImagingFrequency": 123.219,
    "InPlanePhaseEncodingDirectionDICOM": "COL",
    "InstitutionAddress": "Univeristy_Ave._197_Newark_North_East_US_07102-1814",
    "InstitutionName": "RUBIC",
    "InstitutionalDepartmentName": "Department",
    "MRAcquisitionType": "2D",
    "MagneticFieldStrength": 3,
    "Manufacturer": "Siemens",
    "ManufacturersModelName": "TrioTim",
    "Modality": "MR",
    "PartialFourier": 1,
    "PatientPosition": "HFS",
    "PercentPhaseFOV": 100,
    "PhaseEncodingDirection": "j-",
    "PhaseEncodingSteps": 68,
    "PhaseResolution": 1,
    "PixelBandwidth": 2451,
    "ProcedureStepDescription": "Krekelberg_David",
    "ProtocolName": "ep2d_bold_RestEPI_2",
    "PulseSequenceDetails": "%SiemensSeq%_ep2d_bold",
    "ReceiveCoilName": "HeadMatrix",
    "ReconMatrixPE": 68,
    "RepetitionTime": 2,
    "SAR": 0.184111,
    "ScanOptions": "FS",
    "ScanningSequence": "EP",
    "SequenceName": "_epfid2d1_68",
    "SequenceVariant": "SK",
    "SeriesDescription": "ep2d_bold_RestEPI_2",
    "SeriesNumber": 10,
    "ShimSetting": [
      1846,
      -631,
      -7541,
      786,
      10,
      -167,
      -415,
      -56
    ],
    "SliceThickness": 2.5,
    "SliceTiming": [
      1.9525,
      1.8975,
      1.84,
      1.785,
      1.73,
      1.6725,
      1.6175,
      1.5625,
      1.5075,
      1.45,
      1.395,
      1.34,
      1.2825,
      1.2275,
      1.1725,
      1.115,
      1.06,
      1.005,
      0.9475,
      0.8925,
      0.8375,
      0.7825,
      0.725,
      0.67,
      0.615,
      0.5575,
      0.5025,
      0.4475,
      0.39,
      0.335,
      0.28,
      0.2225,
      0.1675,
      0.1125,
      0.0575,
      0
    ],
    "SoftwareVersions": "syngo_MR_B19",
    "SpacingBetweenSlices": 3,
    "StationName": "MRC35450",
    "TaskName": "rest",
    "TotalReadoutTime": 0.0314901,
    "TxRefAmp": 354.428,
    "dataset": "<unset>",
    "dcmmeta_affine": [
      [
        -2.9988303184509277,
        7.225073517247438e-08,
        -0.08376491814851761,
        103.42611694335938
      ],
      [
        0.0011696132132783532,
        2.9997074604034424,
        -0.04187021031975746,
        -74.56857299804688
      ],
      [
        -0.08375675231218338,
        0.04188654199242592,
        2.998538017272949,
        -46.263179779052734
      ],
      [
        0.0,
        0.0,
        0.0,
        1.0
      ]
    ],
    "dcmmeta_reorient_transform": [
      [
        0.0,
        -1.0,
        0.0,
        67.0
      ],
      [
        1.0,
        0.0,
        0.0,
        0.0
      ],
      [
        0.0,
        0.0,
        1.0,
        0.0
      ],
      [
        0.0,
        0.0,
        0.0,
        1.0
      ]
    ],
    "dcmmeta_shape": [
      68,
      68,
      36,
      240
    ],
    "dcmmeta_slice_dim": 2,
    "dcmmeta_version": 0.6,
    "global": {
      "const": {
        "AcquisitionMatrix": [
          68,
          0,
          0,
          68
        ],
        "AngioFlag": "N",
        "BitsAllocated": 16,
        "BitsStored": 12,
        "Columns": 408,
        "EchoNumbers": 1,
        "EchoTime": 23.0,
        "EchoTrainLength": 1,
        "FlipAngle": 76.0,
        "HighBit": 11,
        "ImageOrientationPatient": [
          0.99961011500728,
          -0.0003898710552,
          -0.027918917882,
          2.4083578e-08,
          0.99990252400351,
          -0.0139621807539
        ],
        "ImagePositionPatient": [
          -613.22729112042,
          -636.16328573389,
          -22.097420588902
        ],
        "ImageType": [
          "ORIGINAL",
          "PRIMARY",
          "M",
          "ND",
          "MOSAIC"
        ],
        "ImagedNucleus": "1H",
        "ImagingFrequency": 123.218543,
        "InPlanePhaseEncodingDirection": "COL",
        "MRAcquisitionType": "2D",
        "MagneticFieldStrength": 3.0,
        "Manufacturer": "SIEMENS",
        "ManufacturerModelName": "TrioTim",
        "Modality": "MR",
        "NumberOfAverages": 1.0,
        "NumberOfPhaseEncodingSteps": 68,
        "PercentPhaseFieldOfView": 100.0,
        "PercentSampling": 100.0,
        "PerformedProcedureStepStartTime": "112717.109000",
        "PhotometricInterpretation": "MONOCHROME2",
        "PixelBandwidth": 2451.0,
        "PixelRepresentation": 0,
        "PixelSpacing": [
          3.0,
          3.0
        ],
        "ProtocolName": "ep2d_bold_RestEPI_2",
        "RepetitionTime": 2000.0,
        "Rows": 408,
        "SAR": 0.18411128728559,
        "SamplesPerPixel": 1,
        "ScanOptions": "FS",
        "ScanningSequence": "EP",
        "SequenceName": "*epfid2d1_68",
        "SequenceVariant": "SK",
        "SeriesDescription": "ep2d_bold_RestEPI_2",
        "SeriesNumber": 10,
        "SeriesTime": "122423.890000",
        "SliceLocation": -48.087726922221,
        "SliceThickness": 2.5,
        "SmallestImagePixelValue": 0,
        "SoftwareVersions": "syngo MR B19",
        "SpacingBetweenSlices": 2.9999999582892,
        "SpecificCharacterSet": "ISO_IR 100",
        "StudyID": "1",
        "StudyTime": "112717.000000",
        "TransmitCoilName": "Body",
        "VariableFlipAngleFlag": "N",
        "WindowCenterWidthExplanation": "Algo1",
        "dBdt": 0.0
      },
      "slices": {}
    },
    "modality": "bold",
    "run_id": 2,
    "subject_id": "220",
    "task_id": "rest",
    "time": {
      "samples": {
        "AcquisitionNumber": [
          1,
          2,
          3,
          4,
          5,
          6,
          7,
          8,
          9,
          10,
          11,
          12,
          13,
          14,
          15,
          16,
          17,
          18,
          19,
          20,
          21,
          22,
          23,
          24,
          25,
          26,
          27,
          28,
          29,
          30,
          31,
          32,
          33,
          34,
          35,
          36,
          37,
          38,
          39,
          40,
          41,
          42,
          43,
          44,
          45,
          46,
          47,
          48,
          49,
          50,
          51,
          52,
          53,
          54,
          55,
          56,
          57,
          58,
          59,
          60,
          61,
          62,
          63,
          64,
          65,
          66,
          67,
          68,
          69,
          70,
          71,
          72,
          73,
          74,
          75,
          76,
          77,
          78,
          79,
          80,
          81,
          82,
          83,
          84,
          85,
          86,
          87,
          88,
          89,
          90,
          91,
          92,
          93,
          94,
          95,
          96,
          97,
          98,
          99,
          100,
          101,
          102,
          103,
          104,
          105,
          106,
          107,
          108,
          109,
          110,
          111,
          112,
          113,
          114,
          115,
          116,
          117,
          118,
          119,
          120,
          121,
          122,
          123,
          124,
          125,
          126,
          127,
          128,
          129,
          130,
          131,
          132,
          133,
          134,
          135,
          136,
          137,
          138,
          139,
          140,
          141,
          142,
          143,
          144,
          145,
          146,
          147,
          148,
          149,
          150,
          151,
          152,
          153,
          154,
          155,
          156,
          157,
          158,
          159,
          160,
          161,
          162,
          163,
          164,
          165,
          166,
          167,
          168,
          169,
          170,
          171,
          172,
          173,
          174,
          175,
          176,
          177,
          178,
          179,
          180,
          181,
          182,
          183,
          184,
          185,
          186,
          187,
          188,
          189,
          190,
          191,
          192,
          193,
          194,
          195,
          196,
          197,
          198,
          199,
          200,
          201,
          202,
          203,
          204,
          205,
          206,
          207,
          208,
          209,
          210,
          211,
          212,
          213,
          214,
          215,
          216,
          217,
          218,
          219,
          220,
          221,
          222,
          223,
          224,
          225,
          226,
          227,
          228,
          229,
          230,
          231,
          232,
          233,
          234,
          235,
          236,
          237,
          238,
          239,
          240
        ],
        "AcquisitionTime": [
          "122332.587500",
          "122334.595000",
          "122336.602500",
          "122338.612500",
          "122340.620000",
          "122342.627500",
          "122344.635000",
          "122346.642500",
          "122348.652500",
          "122350.660000",
          "122352.667500",
          "122354.675000",
          "122356.682500",
          "122358.692500",
          "122400.700000",
          "122402.707500",
          "122404.715000",
          "122406.725000",
          "122408.732500",
          "122410.740000",
          "122412.747500",
          "122414.755000",
          "122416.765000",
          "122418.772500",
          "122420.780000",
          "122422.787500",
          "122424.795000",
          "122426.805000",
          "122428.812500",
          "122430.820000",
          "122432.827500",
          "122434.837500",
          "122436.845000",
          "122438.852500",
          "122440.860000",
          "122442.867500",
          "122444.877500",
          "122446.885000",
          "122448.892500",
          "122450.900000",
          "122452.907500",
          "122454.917500",
          "122456.925000",
          "122458.932500",
          "122500.940000",
          "122502.950000",
          "122504.957500",
          "122506.965000",
          "122508.972500",
          "122510.980000",
          "122512.990000",
          "122514.997500",
          "122517.005000",
          "122519.012500",
          "122521.020000",
          "122523.030000",
          "122525.037500",
          "122527.045000",
          "122529.052500",
          "122531.062500",
          "122533.070000",
          "122535.077500",
          "122537.085000",
          "122539.092500",
          "122541.102500",
          "122543.110000",
          "122545.117500",
          "122547.125000",
          "122549.132500",
          "122551.142500",
          "122553.150000",
          "122555.157500",
          "122557.165000",
          "122559.172500",
          "122601.182500",
          "122603.190000",
          "122605.197500",
          "122607.205000",
          "122609.215000",
          "122611.222500",
          "122613.230000",
          "122615.237500",
          "122617.245000",
          "122619.255000",
          "122621.262500",
          "122623.270000",
          "122625.277500",
          "122627.285000",
          "122629.295000",
          "122631.302500",
          "122633.310000",
          "122635.317500",
          "122637.327500",
          "122639.335000",
          "122641.342500",
          "122643.350000",
          "122645.357500",
          "122647.367500",
          "122649.375000",
          "122651.382500",
          "122653.390000",
          "122655.397500",
          "122657.407500",
          "122659.415000",
          "122701.422500",
          "122703.430000",
          "122705.440000",
          "122707.447500",
          "122709.455000",
          "122711.462500",
          "122713.470000",
          "122715.480000",
          "122717.487500",
          "122719.495000",
          "122721.502500",
          "122723.510000",
          "122725.520000",
          "122727.527500",
          "122729.535000",
          "122731.542500",
          "122733.550000",
          "122735.560000",
          "122737.567500",
          "122739.575000",
          "122741.582500",
          "122743.592500",
          "122745.600000",
          "122747.607500",
          "122749.615000",
          "122751.622500",
          "122753.632500",
          "122755.640000",
          "122757.647500",
          "122759.655000",
          "122801.662500",
          "122803.672500",
          "122805.680000",
          "122807.687500",
          "122809.695000",
          "122811.705000",
          "122813.712500",
          "122815.720000",
          "122817.727500",
          "122819.735000",
          "122821.745000",
          "122823.752500",
          "122825.760000",
          "122827.767500",
          "122829.775000",
          "122831.785000",
          "122833.792500",
          "122835.800000",
          "122837.807500",
          "122839.817500",
          "122841.825000",
          "122843.832500",
          "122845.840000",
          "122847.847500",
          "122849.857500",
          "122851.865000",
          "122853.872500",
          "122855.880000",
          "122857.887500",
          "122859.897500",
          "122901.905000",
          "122903.912500",
          "122905.920000",
          "122907.927500",
          "122909.937500",
          "122911.945000",
          "122913.952500",
          "122915.960000",
          "122917.970000",
          "122919.977500",
          "122921.985000",
          "122923.992500",
          "122926.000000",
          "122928.010000",
          "122930.017500",
          "122932.025000",
          "122934.032500",
          "122936.040000",
          "122938.050000",
          "122940.057500",
          "122942.065000",
          "122944.072500",
          "122946.082500",
          "122948.090000",
          "122950.097500",
          "122952.105000",
          "122954.112500",
          "122956.122500",
          "122958.130000",
          "123000.137500",
          "123002.145000",
          "123004.152500",
          "123006.162500",
          "123008.170000",
          "123010.177500",
          "123012.185000",
          "123014.195000",
          "123016.202500",
          "123018.210000",
          "123020.217500",
          "123022.225000",
          "123024.235000",
          "123026.242500",
          "123028.250000",
          "123030.257500",
          "123032.265000",
          "123034.275000",
          "123036.282500",
          "123038.290000",
          "123040.297500",
          "123042.305000",
          "123044.315000",
          "123046.322500",
          "123048.330000",
          "123050.337500",
          "123052.347500",
          "123054.355000",
          "123056.362500",
          "123058.370000",
          "123100.377500",
          "123102.387500",
          "123104.395000",
          "123106.402500",
          "123108.410000",
          "123110.417500",
          "123112.427500",
          "123114.435000",
          "123116.442500",
          "123118.450000",
          "123120.460000",
          "123122.467500",
          "123124.475000",
          "123126.482500",
          "123128.490000",
          "123130.500000",
          "123132.507500"
        ],
        "ContentTime": [
          "122423.890000",
          "122423.890000",
          "122423.890000",
          "122423.890000",
          "122423.890000",
          "122423.890000",
          "122423.906000",
          "122423.906000",
          "122423.906000",
          "122423.906000",
          "122423.906000",
          "122423.906000",
          "122423.921000",
          "122423.921000",
          "122423.921000",
          "122423.921000",
          "122423.921000",
          "122423.937000",
          "122423.937000",
          "122423.937000",
          "122423.937000",
          "122423.937000",
          "122423.937000",
          "122423.937000",
          "122423.953000",
          "122423.953000",
          "122503.875000",
          "122503.890000",
          "122503.890000",
          "122503.890000",
          "122503.890000",
          "122503.890000",
          "122503.890000",
          "122503.890000",
          "122503.906000",
          "122503.906000",
          "122503.906000",
          "122503.906000",
          "122503.906000",
          "122503.921000",
          "122503.921000",
          "122503.921000",
          "122503.921000",
          "122503.921000",
          "122503.937000",
          "122503.937000",
          "122543.875000",
          "122543.890000",
          "122543.890000",
          "122543.890000",
          "122543.890000",
          "122543.890000",
          "122543.890000",
          "122543.890000",
          "122543.906000",
          "122543.906000",
          "122543.906000",
          "122543.906000",
          "122543.906000",
          "122543.906000",
          "122543.906000",
          "122543.906000",
          "122543.921000",
          "122543.921000",
          "122543.921000",
          "122543.921000",
          "122623.875000",
          "122623.890000",
          "122623.890000",
          "122623.890000",
          "122623.890000",
          "122623.890000",
          "122623.890000",
          "122623.890000",
          "122623.906000",
          "122623.906000",
          "122623.906000",
          "122623.906000",
          "122623.906000",
          "122623.906000",
          "122623.906000",
          "122623.921000",
          "122623.921000",
          "122623.921000",
          "122623.921000",
          "122623.921000",
          "122703.875000",
          "122703.890000",
          "122703.890000",
          "122703.890000",
          "122703.890000",
          "122703.890000",
          "122703.890000",
          "122703.890000",
          "122703.906000",
          "122703.906000",
          "122703.906000",
          "122703.906000",
          "122703.906000",
          "122703.906000",
          "122703.906000",
          "122703.921000",
          "122703.921000",
          "122703.921000",
          "122703.937000",
          "122703.937000",
          "122743.875000",
          "122743.890000",
          "122743.890000",
          "122743.890000",
          "122743.890000",
          "122743.890000",
          "122743.890000",
          "122743.890000",
          "122743.906000",
          "122743.906000",
          "122743.906000",
          "122743.906000",
          "122743.906000",
          "122743.921000",
          "122743.921000",
          "122743.921000",
          "122743.921000",
          "122743.937000",
          "122743.937000",
          "122743.937000",
          "122823.875000",
          "122823.890000",
          "122823.890000",
          "122823.890000",
          "122823.890000",
          "122823.890000",
          "122823.890000",
          "122823.890000",
          "122823.906000",
          "122823.906000",
          "122823.906000",
          "122823.906000",
          "122823.906000",
          "122823.921000",
          "122823.921000",
          "122823.921000",
          "122823.921000",
          "122823.921000",
          "122823.937000",
          "122823.937000",
          "122903.875000",
          "122903.890000",
          "122903.890000",
          "122903.890000",
          "122903.890000",
          "122903.890000",
          "122903.890000",
          "122903.890000",
          "122903.906000",
          "122903.906000",
          "122903.906000",
          "122903.906000",
          "122903.906000",
          "122903.921000",
          "122903.921000",
          "122903.921000",
          "122903.937000",
          "122903.937000",
          "122903.937000",
          "122903.937000",
          "122943.875000",
          "122943.890000",
          "122943.890000",
          "122943.890000",
          "122943.890000",
          "122943.890000",
          "122943.890000",
          "122943.890000",
          "122943.906000",
          "122943.906000",
          "122943.906000",
          "122943.906000",
          "122943.906000",
          "122943.906000",
          "122943.906000",
          "122943.906000",
          "122943.921000",
          "122943.921000",
          "122943.921000",
          "122943.921000",
          "123023.875000",
          "123023.890000",
          "123023.890000",
          "123023.890000",
          "123023.890000",
          "123023.890000",
          "123023.890000",
          "123023.890000",
          "123023.906000",
          "123023.906000",
          "123023.906000",
          "123023.906000",
          "123023.906000",
          "123023.906000",
          "123023.906000",
          "123023.921000",
          "123023.921000",
          "123023.921000",
          "123023.921000",
          "123023.921000",
          "123103.875000",
          "123103.890000",
          "123103.890000",
          "123103.890000",
          "123103.890000",
          "123103.890000",
          "123103.890000",
          "123103.890000",
          "123103.906000",
          "123103.906000",
          "123103.906000",
          "123103.906000",
          "123103.906000",
          "123103.906000",
          "123103.921000",
          "123103.921000",
          "123103.921000",
          "123103.921000",
          "123103.921000",
          "123103.921000",
          "123131.000000",
          "123131.000000",
          "123131.015000",
          "123131.015000",
          "123131.015000",
          "123131.015000",
          "123131.015000",
          "123131.015000",
          "123131.015000",
          "123131.031000",
          "123131.031000",
          "123131.031000",
          "123131.031000",
          "123131.031000"
        ],
        "InstanceCreationTime": [
          "122423.890000",
          "122423.890000",
          "122423.890000",
          "122423.890000",
          "122423.890000",
          "122423.890000",
          "122423.906000",
          "122423.906000",
          "122423.906000",
          "122423.906000",
          "122423.906000",
          "122423.906000",
          "122423.921000",
          "122423.921000",
          "122423.921000",
          "122423.921000",
          "122423.921000",
          "122423.937000",
          "122423.937000",
          "122423.937000",
          "122423.937000",
          "122423.937000",
          "122423.937000",
          "122423.937000",
          "122423.953000",
          "122423.953000",
          "122503.875000",
          "122503.890000",
          "122503.890000",
          "122503.890000",
          "122503.890000",
          "122503.890000",
          "122503.890000",
          "122503.890000",
          "122503.906000",
          "122503.906000",
          "122503.906000",
          "122503.906000",
          "122503.906000",
          "122503.921000",
          "122503.921000",
          "122503.921000",
          "122503.921000",
          "122503.921000",
          "122503.937000",
          "122503.937000",
          "122543.875000",
          "122543.890000",
          "122543.890000",
          "122543.890000",
          "122543.890000",
          "122543.890000",
          "122543.890000",
          "122543.890000",
          "122543.906000",
          "122543.906000",
          "122543.906000",
          "122543.906000",
          "122543.906000",
          "122543.906000",
          "122543.906000",
          "122543.906000",
          "122543.921000",
          "122543.921000",
          "122543.921000",
          "122543.921000",
          "122623.875000",
          "122623.890000",
          "122623.890000",
          "122623.890000",
          "122623.890000",
          "122623.890000",
          "122623.890000",
          "122623.890000",
          "122623.906000",
          "122623.906000",
          "122623.906000",
          "122623.906000",
          "122623.906000",
          "122623.906000",
          "122623.906000",
          "122623.921000",
          "122623.921000",
          "122623.921000",
          "122623.921000",
          "122623.921000",
          "122703.875000",
          "122703.890000",
          "122703.890000",
          "122703.890000",
          "122703.890000",
          "122703.890000",
          "122703.890000",
          "122703.890000",
          "122703.906000",
          "122703.906000",
          "122703.906000",
          "122703.906000",
          "122703.906000",
          "122703.906000",
          "122703.906000",
          "122703.921000",
          "122703.921000",
          "122703.921000",
          "122703.937000",
          "122703.937000",
          "122743.875000",
          "122743.890000",
          "122743.890000",
          "122743.890000",
          "122743.890000",
          "122743.890000",
          "122743.890000",
          "122743.890000",
          "122743.906000",
          "122743.906000",
          "122743.906000",
          "122743.906000",
          "122743.906000",
          "122743.921000",
          "122743.921000",
          "122743.921000",
          "122743.921000",
          "122743.937000",
          "122743.937000",
          "122743.937000",
          "122823.875000",
          "122823.890000",
          "122823.890000",
          "122823.890000",
          "122823.890000",
          "122823.890000",
          "122823.890000",
          "122823.890000",
          "122823.906000",
          "122823.906000",
          "122823.906000",
          "122823.906000",
          "122823.906000",
          "122823.921000",
          "122823.921000",
          "122823.921000",
          "122823.921000",
          "122823.921000",
          "122823.937000",
          "122823.937000",
          "122903.875000",
          "122903.890000",
          "122903.890000",
          "122903.890000",
          "122903.890000",
          "122903.890000",
          "122903.890000",
          "122903.890000",
          "122903.906000",
          "122903.906000",
          "122903.906000",
          "122903.906000",
          "122903.906000",
          "122903.921000",
          "122903.921000",
          "122903.921000",
          "122903.937000",
          "122903.937000",
          "122903.937000",
          "122903.937000",
          "122943.875000",
          "122943.890000",
          "122943.890000",
          "122943.890000",
          "122943.890000",
          "122943.890000",
          "122943.890000",
          "122943.890000",
          "122943.906000",
          "122943.906000",
          "122943.906000",
          "122943.906000",
          "122943.906000",
          "122943.906000",
          "122943.906000",
          "122943.906000",
          "122943.921000",
          "122943.921000",
          "122943.921000",
          "122943.921000",
          "123023.875000",
          "123023.890000",
          "123023.890000",
          "123023.890000",
          "123023.890000",
          "123023.890000",
          "123023.890000",
          "123023.890000",
          "123023.906000",
          "123023.906000",
          "123023.906000",
          "123023.906000",
          "123023.906000",
          "123023.906000",
          "123023.906000",
          "123023.921000",
          "123023.921000",
          "123023.921000",
          "123023.921000",
          "123023.921000",
          "123103.875000",
          "123103.890000",
          "123103.890000",
          "123103.890000",
          "123103.890000",
          "123103.890000",
          "123103.890000",
          "123103.890000",
          "123103.906000",
          "123103.906000",
          "123103.906000",
          "123103.906000",
          "123103.906000",
          "123103.906000",
          "123103.921000",
          "123103.921000",
          "123103.921000",
          "123103.921000",
          "123103.921000",
          "123103.921000",
          "123131.000000",
          "123131.000000",
          "123131.015000",
          "123131.015000",
          "123131.015000",
          "123131.015000",
          "123131.015000",
          "123131.015000",
          "123131.015000",
          "123131.031000",
          "123131.031000",
          "123131.031000",
          "123131.031000",
          "123131.031000"
        ],
        "InstanceNumber": [
          1,
          2,
          3,
          4,
          5,
          6,
          7,
          8,
          9,
          10,
          11,
          12,
          13,
          14,
          15,
          16,
          17,
          18,
          19,
          20,
          21,
          22,
          23,
          24,
          25,
          26,
          27,
          28,
          29,
          30,
          31,
          32,
          33,
          34,
          35,
          36,
          37,
          38,
          39,
          40,
          41,
          42,
          43,
          44,
          45,
