{
  "aor": 0.0030433054393305434,
  "aqi": 0.01761412050209205,
  "bids_meta": {
    "AcquisitionMatrixPE": 68,
    "AcquisitionNumber": 1,
    "AcquisitionTime": "12:42:3.325000",
    "BandwidthPerPixelPhaseEncode": 31.289,
    "BaseResolution": 68,
    "CogAtlasID": "TODO",
    "CoilString": "C:HEA;HEP",
    "ConversionSoftware": "dcm2niix",
    "ConversionSoftwareVersion": "v1.0.20190902",
    "DerivedVendorReportedEchoSpacing": 0.000470002,
    "DeviceSerialNumber": "35450",
    "DwellTime": 3e-06,
    "EchoTime": 0.023,
    "EffectiveEchoSpacing": 0.000470002,
    "FlipAngle": 76,
    "ImageOrientationPatientDICOM": [
      0.99961,
      -0.000389871,
      -0.0279189,
      2.40836e-08,
      0.999903,
      -0.0139622
    ],
    "ImageType": [
      "ORIGINAL",
      "PRIMARY",
      "M",
      "ND",
      "MOSAIC"
    ],
    "ImagingFrequency": 123.219,
    "InPlanePhaseEncodingDirectionDICOM": "COL",
    "InstitutionAddress": "Univeristy_Ave._197_Newark_North_East_US_07102-1814",
    "InstitutionName": "RUBIC",
    "InstitutionalDepartmentName": "Department",
    "MRAcquisitionType": "2D",
    "MagneticFieldStrength": 3,
    "Manufacturer": "Siemens",
    "ManufacturersModelName": "TrioTim",
    "Modality": "MR",
    "PartialFourier": 1,
    "PatientPosition": "HFS",
    "PercentPhaseFOV": 100,
    "PhaseEncodingDirection": "j-",
    "PhaseEncodingSteps": 68,
    "PhaseResolution": 1,
    "PixelBandwidth": 2451,
    "ProcedureStepDescription": "Krekelberg_David",
    "ProtocolName": "ep2d_bold_RestEPI_4",
    "PulseSequenceDetails": "%SiemensSeq%_ep2d_bold",
    "ReceiveCoilName": "HeadMatrix",
    "ReconMatrixPE": 68,
    "RepetitionTime": 2,
    "SAR": 0.184111,
    "ScanOptions": "FS",
    "ScanningSequence": "EP",
    "SequenceName": "_epfid2d1_68",
    "SequenceVariant": "SK",
    "SeriesDescription": "ep2d_bold_RestEPI_4",
    "SeriesNumber": 12,
    "ShimSetting": [
      1846,
      -631,
      -7541,
      786,
      10,
      -167,
      -415,
      -56
    ],
    "SliceThickness": 2.5,
    "SliceTiming": [
      1.95,
      1.895,
      1.84,
      1.7825,
      1.7275,
      1.6725,
      1.6175,
      1.56,
      1.505,
      1.45,
      1.3925,
      1.3375,
      1.2825,
      1.225,
      1.17,
      1.115,
      1.06,
      1.0025,
      0.9475,
      0.8925,
      0.835,
      0.78,
      0.725,
      0.6675,
      0.6125,
      0.5575,
      0.5,
      0.445,
      0.39,
      0.335,
      0.2775,
      0.2225,
      0.1675,
      0.11,
      0.055,
      0
    ],
    "SoftwareVersions": "syngo_MR_B19",
    "SpacingBetweenSlices": 3,
    "StationName": "MRC35450",
    "TaskName": "rest",
    "TotalReadoutTime": 0.0314901,
    "TxRefAmp": 354.428,
    "dataset": "<unset>",
    "dcmmeta_affine": [
      [
        -2.9988303184509277,
        7.225073517247438e-08,
        -0.08376491814851761,
        103.42611694335938
      ],
      [
        0.0011696132132783532,
        2.9997074604034424,
        -0.04187021031975746,
        -74.56857299804688
      ],
      [
        -0.08375675231218338,
        0.04188654199242592,
        2.998538017272949,
        -46.263179779052734
      ],
      [
        0.0,
        0.0,
        0.0,
        1.0
      ]
    ],
    "dcmmeta_reorient_transform": [
      [
        0.0,
        -1.0,
        0.0,
        67.0
      ],
      [
        1.0,
        0.0,
        0.0,
        0.0
      ],
      [
        0.0,
        0.0,
        1.0,
        0.0
      ],
      [
        0.0,
        0.0,
        0.0,
        1.0
      ]
    ],
    "dcmmeta_shape": [
      68,
      68,
      36,
      240
    ],
    "dcmmeta_slice_dim": 2,
    "dcmmeta_version": 0.6,
    "global": {
      "const": {
        "AcquisitionMatrix": [
          68,
          0,
          0,
          68
        ],
        "AngioFlag": "N",
        "BitsAllocated": 16,
        "BitsStored": 12,
        "Columns": 408,
        "EchoNumbers": 1,
        "EchoTime": 23.0,
        "EchoTrainLength": 1,
        "FlipAngle": 76.0,
        "HighBit": 11,
        "ImageOrientationPatient": [
          0.99961011500728,
          -0.0003898710552,
          -0.027918917882,
          2.4083578e-08,
          0.99990252400351,
          -0.0139621807539
        ],
        "ImagePositionPatient": [
          -613.22729112042,
          -636.16328573389,
          -22.097420588902
        ],
        "ImageType": [
          "ORIGINAL",
          "PRIMARY",
          "M",
          "ND",
          "MOSAIC"
        ],
        "ImagedNucleus": "1H",
        "ImagingFrequency": 123.218569,
        "InPlanePhaseEncodingDirection": "COL",
        "MRAcquisitionType": "2D",
        "MagneticFieldStrength": 3.0,
        "Manufacturer": "SIEMENS",
        "ManufacturerModelName": "TrioTim",
        "Modality": "MR",
        "NumberOfAverages": 1.0,
        "NumberOfPhaseEncodingSteps": 68,
        "PercentPhaseFieldOfView": 100.0,
        "PercentSampling": 100.0,
        "PerformedProcedureStepStartTime": "112717.109000",
        "PhotometricInterpretation": "MONOCHROME2",
        "PixelBandwidth": 2451.0,
        "PixelRepresentation": 0,
        "PixelSpacing": [
          3.0,
          3.0
        ],
        "ProtocolName": "ep2d_bold_RestEPI_4",
        "RepetitionTime": 2000.0,
        "Rows": 408,
        "SAR": 0.18411128728559,
        "SamplesPerPixel": 1,
        "ScanOptions": "FS",
        "ScanningSequence": "EP",
        "SequenceName": "*epfid2d1_68",
        "SequenceVariant": "SK",
        "SeriesDescription": "ep2d_bold_RestEPI_4",
        "SeriesNumber": 12,
        "SeriesTime": "124259.437000",
        "SliceLocation": -48.087726922221,
        "SliceThickness": 2.5,
        "SmallestImagePixelValue": 0,
        "SoftwareVersions": "syngo MR B19",
        "SpacingBetweenSlices": 2.9999999582892,
        "SpecificCharacterSet": "ISO_IR 100",
        "StudyID": "1",
        "StudyTime": "112717.000000",
        "TransmitCoilName": "Body",
        "VariableFlipAngleFlag": "N",
        "WindowCenterWidthExplanation": "Algo1",
        "dBdt": 0.0
      },
      "slices": {}
    },
    "modality": "bold",
    "run_id": 4,
    "subject_id": "220",
    "task_id": "rest",
    "time": {
      "samples": {
        "AcquisitionNumber": [
          1,
          2,
          3,
          4,
          5,
          6,
          7,
          8,
          9,
          10,
          11,
          12,
          13,
          14,
          15,
          16,
          17,
          18,
          19,
          20,
          21,
          22,
          23,
          24,
          25,
          26,
          27,
          28,
          29,
          30,
          31,
          32,
          33,
          34,
          35,
          36,
          37,
          38,
          39,
          40,
          41,
          42,
          43,
          44,
          45,
          46,
          47,
          48,
          49,
          50,
          51,
          52,
          53,
          54,
          55,
          56,
          57,
          58,
          59,
          60,
          61,
          62,
          63,
          64,
          65,
          66,
          67,
          68,
          69,
          70,
          71,
          72,
          73,
          74,
          75,
          76,
          77,
          78,
          79,
          80,
          81,
          82,
          83,
          84,
          85,
          86,
          87,
          88,
          89,
          90,
          91,
          92,
          93,
          94,
          95,
          96,
          97,
          98,
          99,
          100,
          101,
          102,
          103,
          104,
          105,
          106,
          107,
          108,
          109,
          110,
          111,
          112,
          113,
          114,
          115,
          116,
          117,
          118,
          119,
          120,
          121,
          122,
          123,
          124,
          125,
          126,
          127,
          128,
          129,
          130,
          131,
          132,
          133,
          134,
          135,
          136,
          137,
          138,
          139,
          140,
          141,
          142,
          143,
          144,
          145,
          146,
          147,
          148,
          149,
          150,
          151,
          152,
          153,
          154,
          155,
          156,
          157,
          158,
          159,
          160,
          161,
          162,
          163,
          164,
          165,
          166,
          167,
          168,
          169,
          170,
          171,
          172,
          173,
          174,
          175,
          176,
          177,
          178,
          179,
          180,
          181,
          182,
          183,
          184,
          185,
          186,
          187,
          188,
          189,
          190,
          191,
          192,
          193,
          194,
          195,
          196,
          197,
          198,
          199,
          200,
          201,
          202,
          203,
          204,
          205,
          206,
          207,
          208,
          209,
          210,
          211,
          212,
          213,
          214,
          215,
          216,
          217,
          218,
          219,
          220,
          221,
          222,
          223,
          224,
          225,
          226,
          227,
          228,
          229,
          230,
          231,
          232,
          233,
          234,
          235,
          236,
          237,
          238,
          239,
          240
        ],
        "AcquisitionTime": [
          "124203.325000",
          "124205.335000",
          "124207.342500",
          "124209.350000",
          "124211.357500",
          "124213.365000",
          "124215.375000",
          "124217.382500",
          "124219.390000",
          "124221.397500",
          "124223.407500",
          "124225.415000",
          "124227.422500",
          "124229.430000",
          "124231.437500",
          "124233.447500",
          "124235.455000",
          "124237.462500",
          "124239.470000",
          "124241.477500",
          "124243.487500",
          "124245.495000",
          "124247.502500",
          "124249.510000",
          "124251.520000",
          "124253.527500",
          "124255.535000",
          "124257.542500",
          "124259.550000",
          "124301.560000",
          "124303.567500",
          "124305.575000",
          "124307.582500",
          "124309.590000",
          "124311.600000",
          "124313.607500",
          "124315.615000",
          "124317.622500",
          "124319.630000",
          "124321.640000",
          "124323.647500",
          "124325.655000",
          "124327.662500",
          "124329.672500",
          "124331.680000",
          "124333.687500",
          "124335.695000",
          "124337.702500",
          "124339.712500",
          "124341.720000",
          "124343.727500",
          "124345.735000",
          "124347.742500",
          "124349.752500",
          "124351.760000",
          "124353.767500",
          "124355.775000",
          "124357.785000",
          "124359.792500",
          "124401.800000",
          "124403.807500",
          "124405.815000",
          "124407.825000",
          "124409.832500",
          "124411.840000",
          "124413.847500",
          "124415.855000",
          "124417.865000",
          "124419.872500",
          "124421.880000",
          "124423.887500",
          "124425.897500",
          "124427.905000",
          "124429.912500",
          "124431.920000",
          "124433.927500",
          "124435.937500",
          "124437.945000",
          "124439.952500",
          "124441.960000",
          "124443.967500",
          "124445.977500",
          "124447.985000",
          "124449.992500",
          "124452.000000",
          "124454.007500",
          "124456.017500",
          "124458.025000",
          "124500.032500",
          "124502.040000",
          "124504.050000",
          "124506.057500",
          "124508.065000",
          "124510.072500",
          "124512.080000",
          "124514.090000",
          "124516.097500",
          "124518.105000",
          "124520.112500",
          "124522.120000",
          "124524.130000",
          "124526.137500",
          "124528.145000",
          "124530.152500",
          "124532.162500",
          "124534.170000",
          "124536.177500",
          "124538.185000",
          "124540.192500",
          "124542.202500",
          "124544.210000",
          "124546.217500",
          "124548.225000",
          "124550.232500",
          "124552.242500",
          "124554.250000",
          "124556.257500",
          "124558.265000",
          "124600.275000",
          "124602.282500",
          "124604.290000",
          "124606.297500",
          "124608.305000",
          "124610.315000",
          "124612.322500",
          "124614.330000",
          "124616.337500",
          "124618.345000",
          "124620.355000",
          "124622.362500",
          "124624.370000",
          "124626.377500",
          "124628.387500",
          "124630.395000",
          "124632.402500",
          "124634.410000",
          "124636.417500",
          "124638.427500",
          "124640.435000",
          "124642.442500",
          "124644.450000",
          "124646.457500",
          "124648.467500",
          "124650.475000",
          "124652.482500",
          "124654.490000",
          "124656.497500",
          "124658.507500",
          "124700.515000",
          "124702.522500",
          "124704.530000",
          "124706.540000",
          "124708.547500",
          "124710.555000",
          "124712.562500",
          "124714.570000",
          "124716.580000",
          "124718.587500",
          "124720.595000",
          "124722.602500",
          "124724.610000",
          "124726.620000",
          "124728.627500",
          "124730.635000",
          "124732.642500",
          "124734.652500",
          "124736.660000",
          "124738.667500",
          "124740.675000",
          "124742.682500",
          "124744.692500",
          "124746.700000",
          "124748.707500",
          "124750.715000",
          "124752.722500",
          "124754.732500",
          "124756.740000",
          "124758.747500",
          "124800.755000",
          "124802.765000",
          "124804.772500",
          "124806.780000",
          "124808.787500",
          "124810.795000",
          "124812.805000",
          "124814.812500",
          "124816.820000",
          "124818.827500",
          "124820.835000",
          "124822.845000",
          "124824.852500",
          "124826.860000",
          "124828.867500",
          "124830.875000",
          "124832.885000",
          "124834.892500",
          "124836.900000",
          "124838.907500",
          "124840.917500",
          "124842.925000",
          "124844.932500",
          "124846.940000",
          "124848.947500",
          "124850.957500",
          "124852.965000",
          "124854.972500",
          "124856.980000",
          "124858.987500",
          "124900.997500",
          "124903.005000",
          "124905.012500",
          "124907.020000",
          "124909.030000",
          "124911.037500",
          "124913.045000",
          "124915.052500",
          "124917.060000",
          "124919.070000",
          "124921.077500",
          "124923.085000",
          "124925.092500",
          "124927.100000",
          "124929.110000",
          "124931.117500",
          "124933.125000",
          "124935.132500",
          "124937.142500",
          "124939.150000",
          "124941.157500",
          "124943.165000",
          "124945.172500",
          "124947.182500",
          "124949.190000",
          "124951.197500",
          "124953.205000",
          "124955.212500",
          "124957.222500",
          "124959.230000",
          "125001.237500",
          "125003.245000"
        ],
        "ContentTime": [
          "124259.437000",
          "124259.437000",
          "124259.437000",
          "124259.437000",
          "124259.437000",
          "124259.437000",
          "124259.453000",
          "124259.453000",
          "124259.453000",
          "124259.453000",
          "124259.453000",
          "124259.453000",
          "124259.453000",
          "124259.468000",
          "124259.468000",
          "124259.468000",
          "124259.468000",
          "124259.468000",
          "124259.468000",
          "124259.468000",
          "124259.484000",
          "124259.484000",
          "124259.484000",
          "124259.484000",
          "124259.484000",
          "124259.484000",
          "124259.484000",
          "124259.500000",
          "124339.421000",
          "124339.437000",
          "124339.437000",
          "124339.437000",
          "124339.437000",
          "124339.437000",
          "124339.437000",
          "124339.437000",
          "124339.453000",
          "124339.453000",
          "124339.453000",
          "124339.453000",
          "124339.453000",
          "124339.453000",
          "124339.453000",
          "124339.453000",
          "124339.468000",
          "124339.468000",
          "124339.468000",
          "124339.468000",
          "124419.421000",
          "124419.437000",
          "124419.437000",
          "124419.437000",
          "124419.437000",
          "124419.437000",
          "124419.437000",
          "124419.437000",
          "124419.453000",
          "124419.453000",
          "124419.453000",
          "124419.453000",
          "124419.453000",
          "124419.453000",
          "124419.453000",
          "124419.468000",
          "124419.468000",
          "124419.468000",
          "124419.468000",
          "124419.468000",
          "124459.421000",
          "124459.437000",
          "124459.437000",
          "124459.437000",
          "124459.437000",
          "124459.437000",
          "124459.437000",
          "124459.437000",
          "124459.453000",
          "124459.453000",
          "124459.453000",
          "124459.453000",
          "124459.453000",
          "124459.453000",
          "124459.453000",
          "124459.453000",
          "124459.468000",
          "124459.468000",
          "124459.468000",
          "124459.468000",
          "124539.421000",
          "124539.437000",
          "124539.437000",
          "124539.437000",
          "124539.437000",
          "124539.437000",
          "124539.437000",
          "124539.437000",
          "124539.453000",
          "124539.453000",
          "124539.453000",
          "124539.453000",
          "124539.453000",
          "124539.453000",
          "124539.453000",
          "124539.468000",
          "124539.468000",
          "124539.468000",
          "124539.468000",
          "124539.468000",
          "124619.421000",
          "124619.437000",
          "124619.437000",
          "124619.437000",
          "124619.437000",
          "124619.437000",
          "124619.437000",
          "124619.437000",
          "124619.453000",
          "124619.453000",
          "124619.453000",
          "124619.453000",
          "124619.453000",
          "124619.453000",
          "124619.453000",
          "124619.453000",
          "124619.468000",
          "124619.468000",
          "124619.468000",
          "124619.468000",
          "124659.421000",
          "124659.437000",
          "124659.437000",
          "124659.437000",
          "124659.437000",
          "124659.437000",
          "124659.437000",
          "124659.437000",
          "124659.453000",
          "124659.453000",
          "124659.453000",
          "124659.453000",
          "124659.453000",
          "124659.453000",
          "124659.453000",
          "124659.468000",
          "124659.468000",
          "124659.468000",
          "124659.468000",
          "124659.468000",
          "124739.421000",
          "124739.437000",
          "124739.437000",
          "124739.437000",
          "124739.437000",
          "124739.437000",
          "124739.437000",
          "124739.453000",
          "124739.453000",
          "124739.453000",
          "124739.453000",
          "124739.453000",
          "124739.468000",
          "124739.468000",
          "124739.468000",
          "124739.468000",
          "124739.468000",
          "124739.468000",
          "124739.468000",
          "124739.468000",
          "124819.421000",
          "124819.437000",
          "124819.437000",
          "124819.437000",
          "124819.437000",
          "124819.437000",
          "124819.437000",
          "124819.453000",
          "124819.453000",
          "124819.453000",
          "124819.453000",
          "124819.453000",
          "124819.453000",
          "124819.453000",
          "124819.468000",
          "124819.468000",
          "124819.468000",
          "124819.468000",
          "124819.468000",
          "124819.468000",
          "124859.421000",
          "124859.437000",
          "124859.437000",
          "124859.437000",
          "124859.437000",
          "124859.437000",
          "124859.437000",
          "124859.437000",
          "124859.453000",
          "124859.453000",
          "124859.453000",
          "124859.453000",
          "124859.453000",
          "124859.453000",
          "124859.453000",
          "124859.453000",
          "124859.468000",
          "124859.468000",
          "124859.468000",
          "124859.468000",
          "124919.421000",
          "124919.437000",
          "124919.437000",
          "124919.437000",
          "124919.437000",
          "124919.437000",
          "124919.437000",
          "124919.437000",
          "124919.453000",
          "124919.453000",
          "124959.421000",
          "124959.437000",
          "124959.437000",
          "124959.437000",
          "124959.437000",
          "124959.437000",
          "124959.437000",
          "124959.437000",
          "124959.453000",
          "124959.453000",
          "124959.453000",
          "124959.453000",
          "124959.453000",
          "124959.453000",
          "124959.453000",
          "124959.453000",
          "124959.468000",
          "124959.468000",
          "124959.468000",
          "124959.468000",
          "125002.203000",
          "125002.203000"
        ],
        "InstanceCreationTime": [
          "124259.437000",
          "124259.437000",
          "124259.437000",
          "124259.437000",
          "124259.437000",
          "124259.437000",
          "124259.453000",
          "124259.453000",
          "124259.453000",
          "124259.453000",
          "124259.453000",
          "124259.453000",
          "124259.453000",
          "124259.468000",
          "124259.468000",
          "124259.468000",
          "124259.468000",
          "124259.468000",
          "124259.468000",
          "124259.468000",
          "124259.484000",
          "124259.484000",
          "124259.484000",
          "124259.484000",
          "124259.484000",
          "124259.484000",
          "124259.484000",
          "124259.500000",
          "124339.421000",
          "124339.437000",
          "124339.437000",
          "124339.437000",
          "124339.437000",
          "124339.437000",
          "124339.437000",
          "124339.437000",
          "124339.453000",
          "124339.453000",
          "124339.453000",
          "124339.453000",
          "124339.453000",
          "124339.453000",
          "124339.453000",
          "124339.453000",
          "124339.468000",
          "124339.468000",
          "124339.468000",
          "124339.468000",
          "124419.421000",
          "124419.437000",
          "124419.437000",
          "124419.437000",
          "124419.437000",
          "124419.437000",
          "124419.437000",
          "124419.437000",
          "124419.453000",
          "124419.453000",
          "124419.453000",
          "124419.453000",
          "124419.453000",
          "124419.453000",
          "124419.453000",
          "124419.468000",
          "124419.468000",
          "124419.468000",
          "124419.468000",
          "124419.468000",
          "124459.421000",
          "124459.437000",
          "124459.437000",
          "124459.437000",
          "124459.437000",
          "124459.437000",
          "124459.437000",
          "124459.437000",
          "124459.453000",
          "124459.453000",
          "124459.453000",
          "124459.453000",
          "124459.453000",
          "124459.453000",
          "124459.453000",
          "124459.453000",
          "124459.468000",
          "124459.468000",
          "124459.468000",
          "124459.468000",
          "124539.421000",
          "124539.437000",
          "124539.437000",
          "124539.437000",
          "124539.437000",
          "124539.437000",
          "124539.437000",
          "124539.437000",
          "124539.453000",
          "124539.453000",
          "124539.453000",
          "124539.453000",
          "124539.453000",
          "124539.453000",
          "124539.453000",
          "124539.468000",
          "124539.468000",
          "124539.468000",
          "124539.468000",
          "124539.468000",
          "124619.421000",
          "124619.437000",
          "124619.437000",
          "124619.437000",
          "124619.437000",
          "124619.437000",
          "124619.437000",
          "124619.437000",
          "124619.453000",
          "124619.453000",
          "124619.453000",
          "124619.453000",
          "124619.453000",
          "124619.453000",
          "124619.453000",
          "124619.453000",
          "124619.468000",
          "124619.468000",
          "124619.468000",
          "124619.468000",
          "124659.421000",
          "124659.437000",
          "124659.437000",
          "124659.437000",
          "124659.437000",
          "124659.437000",
          "124659.437000",
          "124659.437000",
          "124659.453000",
          "124659.453000",
          "124659.453000",
          "124659.453000",
          "124659.453000",
          "124659.453000",
          "124659.453000",
          "124659.468000",
          "124659.468000",
          "124659.468000",
          "124659.468000",
          "124659.468000",
          "124739.421000",
          "124739.437000",
          "124739.437000",
          "124739.437000",
          "124739.437000",
          "124739.437000",
          "124739.437000",
          "124739.453000",
          "124739.453000",
          "124739.453000",
          "124739.453000",
          "124739.453000",
          "124739.468000",
          "124739.468000",
          "124739.468000",
          "124739.468000",
          "124739.468000",
          "124739.468000",
          "124739.468000",
          "124739.468000",
          "124819.421000",
          "124819.437000",
          "124819.437000",
          "124819.437000",
          "124819.437000",
          "124819.437000",
          "124819.437000",
          "124819.453000",
          "124819.453000",
          "124819.453000",
          "124819.453000",
          "124819.453000",
          "124819.453000",
          "124819.453000",
          "124819.468000",
          "124819.468000",
          "124819.468000",
          "124819.468000",
          "124819.468000",
          "124819.468000",
          "124859.421000",
          "124859.437000",
          "124859.437000",
          "124859.437000",
          "124859.437000",
          "124859.437000",
          "124859.437000",
          "124859.437000",
          "124859.453000",
          "124859.453000",
          "124859.453000",
          "124859.453000",
          "124859.453000",
          "124859.453000",
          "124859.453000",
          "124859.453000",
          "124859.468000",
          "124859.468000",
          "124859.468000",
          "124859.468000",
          "124919.421000",
          "124919.437000",
          "124919.437000",
          "124919.437000",
          "124919.437000",
          "124919.437000",
          "124919.437000",
          "124919.437000",
          "124919.453000",
          "124919.453000",
          "124959.421000",
          "124959.437000",
          "124959.437000",
          "124959.437000",
          "124959.437000",
          "124959.437000",
          "124959.437000",
          "124959.437000",
          "124959.453000",
          "124959.453000",
          "124959.453000",
          "124959.453000",
          "124959.453000",
          "124959.453000",
          "124959.453000",
          "124959.453000",
          "124959.468000",
          "124959.468000",
          "124959.468000",
          "124959.468000",
          "125002.203000",
          "125002.203000"
        ],
        "InstanceNumber": [
          1,
          2,
          3,
          4,
          5,
          6,
          7,
          8,
          9,
          10,
          11,
          12,
          13,
          14,
          15,
          16,
          17,
          18,
          19,
          20,
          21,
          22,
          23,
          24,
          25,
          26,
          27,
          28,
          29,
          30,
          31,
          32,
          33,
          34,
          35,
          36,
          37,
          38,
          39,
          40,
          41,
          42,
          43,
          44,
          45,
          46,
