{
  "aor": 0.000594602510460251,
  "aqi": 0.015783382845188286,
  "bids_meta": {
    "AcquisitionMatrixPE": 68,
    "AcquisitionNumber": 1,
    "AcquisitionTime": "12:02:34.642500",
    "BandwidthPerPixelPhaseEncode": 31.289,
    "BaseResolution": 68,
    "CogAtlasID": "TODO",
    "CoilString": "C:HEA;HEP",
    "ConversionSoftware": "dcm2niix",
    "ConversionSoftwareVersion": "v1.0.20190902",
    "DerivedVendorReportedEchoSpacing": 0.000470002,
    "DeviceSerialNumber": "35450",
    "DwellTime": 3e-06,
    "EchoTime": 0.023,
    "EffectiveEchoSpacing": 0.000470002,
    "FlipAngle": 76,
    "ImageOrientationPatientDICOM": [
      0.99961,
      -0.000389871,
      -0.0279189,
      2.40836e-08,
      0.999903,
      -0.0139622
    ],
    "ImageType": [
      "ORIGINAL",
      "PRIMARY",
      "M",
      "ND",
      "MOSAIC"
    ],
    "ImagingFrequency": 123.218,
    "InPlanePhaseEncodingDirectionDICOM": "COL",
    "InstitutionAddress": "Univeristy_Ave._197_Newark_North_East_US_07102-1814",
    "InstitutionName": "RUBIC",
    "InstitutionalDepartmentName": "Department",
    "MRAcquisitionType": "2D",
    "MagneticFieldStrength": 3,
    "Manufacturer": "Siemens",
    "ManufacturersModelName": "TrioTim",
    "Modality": "MR",
    "PartialFourier": 1,
    "PatientPosition": "HFS",
    "PercentPhaseFOV": 100,
    "PhaseEncodingDirection": "j-",
    "PhaseEncodingSteps": 68,
    "PhaseResolution": 1,
    "PixelBandwidth": 2451,
    "ProcedureStepDescription": "Krekelberg_David",
    "ProtocolName": "ep2d_bold_RestEPI_1",
    "PulseSequenceDetails": "%SiemensSeq%_ep2d_bold",
    "ReceiveCoilName": "HeadMatrix",
    "ReconMatrixPE": 68,
    "RepetitionTime": 2,
    "SAR": 0.184111,
    "ScanOptions": "FS",
    "ScanningSequence": "EP",
    "SequenceName": "_epfid2d1_68",
    "SequenceVariant": "SK",
    "SeriesDescription": "ep2d_bold_RestEPI_1",
    "SeriesNumber": 8,
    "ShimSetting": [
      1846,
      -631,
      -7541,
      786,
      10,
      -167,
      -415,
      -56
    ],
    "SliceThickness": 2.5,
    "SliceTiming": [
      1.9525,
      1.8975,
      1.84,
      1.785,
      1.73,
      1.6725,
      1.6175,
      1.5625,
      1.505,
      1.45,
      1.395,
      1.34,
      1.2825,
      1.2275,
      1.1725,
      1.115,
      1.06,
      1.005,
      0.9475,
      0.8925,
      0.8375,
      0.7825,
      0.725,
      0.67,
      0.615,
      0.5575,
      0.5025,
      0.4475,
      0.39,
      0.335,
      0.28,
      0.2225,
      0.1675,
      0.1125,
      0.0575,
      0
    ],
    "SoftwareVersions": "syngo_MR_B19",
    "SpacingBetweenSlices": 3,
    "StationName": "MRC35450",
    "TaskName": "rest",
    "TotalReadoutTime": 0.0314901,
    "TxRefAmp": 354.428,
    "dataset": "<unset>",
    "dcmmeta_affine": [
      [
        -2.9988303184509277,
        7.225073517247438e-08,
        -0.08376491814851761,
        103.42611694335938
      ],
      [
        0.0011696132132783532,
        2.9997074604034424,
        -0.04187021031975746,
        -74.56857299804688
      ],
      [
        -0.08375675231218338,
        0.04188654199242592,
        2.998538017272949,
        -46.263179779052734
      ],
      [
        0.0,
        0.0,
        0.0,
        1.0
      ]
    ],
    "dcmmeta_reorient_transform": [
      [
        0.0,
        -1.0,
        0.0,
        67.0
      ],
      [
        1.0,
        0.0,
        0.0,
        0.0
      ],
      [
        0.0,
        0.0,
        1.0,
        0.0
      ],
      [
        0.0,
        0.0,
        0.0,
        1.0
      ]
    ],
    "dcmmeta_shape": [
      68,
      68,
      36,
      240
    ],
    "dcmmeta_slice_dim": 2,
    "dcmmeta_version": 0.6,
    "global": {
      "const": {
        "AcquisitionMatrix": [
          68,
          0,
          0,
          68
        ],
        "AngioFlag": "N",
        "BitsAllocated": 16,
        "BitsStored": 12,
        "Columns": 408,
        "EchoNumbers": 1,
        "EchoTime": 23.0,
        "EchoTrainLength": 1,
        "FlipAngle": 76.0,
        "HighBit": 11,
        "ImageOrientationPatient": [
          0.99961011500728,
          -0.0003898710552,
          -0.027918917882,
          2.4083578e-08,
          0.99990252400351,
          -0.0139621807539
        ],
        "ImagePositionPatient": [
          -613.22729112042,
          -636.16328573389,
          -22.097420588902
        ],
        "ImageType": [
          "ORIGINAL",
          "PRIMARY",
          "M",
          "ND",
          "MOSAIC"
        ],
        "ImagedNucleus": "1H",
        "ImagingFrequency": 123.218499,
        "InPlanePhaseEncodingDirection": "COL",
        "MRAcquisitionType": "2D",
        "MagneticFieldStrength": 3.0,
        "Manufacturer": "SIEMENS",
        "ManufacturerModelName": "TrioTim",
        "Modality": "MR",
        "NumberOfAverages": 1.0,
        "NumberOfPhaseEncodingSteps": 68,
        "PercentPhaseFieldOfView": 100.0,
        "PercentSampling": 100.0,
        "PerformedProcedureStepStartTime": "112717.109000",
        "PhotometricInterpretation": "MONOCHROME2",
        "PixelBandwidth": 2451.0,
        "PixelRepresentation": 0,
        "PixelSpacing": [
          3.0,
          3.0
        ],
        "ProtocolName": "ep2d_bold_RestEPI_1",
        "RepetitionTime": 2000.0,
        "Rows": 408,
        "SAR": 0.18411128728559,
        "SamplesPerPixel": 1,
        "ScanOptions": "FS",
        "ScanningSequence": "EP",
        "SequenceName": "*epfid2d1_68",
        "SequenceVariant": "SK",
        "SeriesDescription": "ep2d_bold_RestEPI_1",
        "SeriesNumber": 8,
        "SeriesTime": "120323.906000",
        "SliceLocation": -48.087726922221,
        "SliceThickness": 2.5,
        "SmallestImagePixelValue": 0,
        "SoftwareVersions": "syngo MR B19",
        "SpacingBetweenSlices": 2.9999999582892,
        "SpecificCharacterSet": "ISO_IR 100",
        "StudyID": "1",
        "StudyTime": "112717.000000",
        "TransmitCoilName": "Body",
        "VariableFlipAngleFlag": "N",
        "WindowCenterWidthExplanation": "Algo1",
        "dBdt": 0.0
      },
      "slices": {}
    },
    "modality": "bold",
    "run_id": 1,
    "subject_id": "220",
    "task_id": "rest",
    "time": {
      "samples": {
        "AcquisitionNumber": [
          1,
          2,
          3,
          4,
          5,
          6,
          7,
          8,
          9,
          10,
          11,
          12,
          13,
          14,
          15,
          16,
          17,
          18,
          19,
          20,
          21,
          22,
          23,
          24,
          25,
          26,
          27,
          28,
          29,
          30,
          31,
          32,
          33,
          34,
          35,
          36,
          37,
          38,
          39,
          40,
          41,
          42,
          43,
          44,
          45,
          46,
          47,
          48,
          49,
          50,
          51,
          52,
          53,
          54,
          55,
          56,
          57,
          58,
          59,
          60,
          61,
          62,
          63,
          64,
          65,
          66,
          67,
          68,
          69,
          70,
          71,
          72,
          73,
          74,
          75,
          76,
          77,
          78,
          79,
          80,
          81,
          82,
          83,
          84,
          85,
          86,
          87,
          88,
          89,
          90,
          91,
          92,
          93,
          94,
          95,
          96,
          97,
          98,
          99,
          100,
          101,
          102,
          103,
          104,
          105,
          106,
          107,
          108,
          109,
          110,
          111,
          112,
          113,
          114,
          115,
          116,
          117,
          118,
          119,
          120,
          121,
          122,
          123,
          124,
          125,
          126,
          127,
          128,
          129,
          130,
          131,
          132,
          133,
          134,
          135,
          136,
          137,
          138,
          139,
          140,
          141,
          142,
          143,
          144,
          145,
          146,
          147,
          148,
          149,
          150,
          151,
          152,
          153,
          154,
          155,
          156,
          157,
          158,
          159,
          160,
          161,
          162,
          163,
          164,
          165,
          166,
          167,
          168,
          169,
          170,
          171,
          172,
          173,
          174,
          175,
          176,
          177,
          178,
          179,
          180,
          181,
          182,
          183,
          184,
          185,
          186,
          187,
          188,
          189,
          190,
          191,
          192,
          193,
          194,
          195,
          196,
          197,
          198,
          199,
          200,
          201,
          202,
          203,
          204,
          205,
          206,
          207,
          208,
          209,
          210,
          211,
          212,
          213,
          214,
          215,
          216,
          217,
          218,
          219,
          220,
          221,
          222,
          223,
          224,
          225,
          226,
          227,
          228,
          229,
          230,
          231,
          232,
          233,
          234,
          235,
          236,
          237,
          238,
          239,
          240
        ],
        "AcquisitionTime": [
          "120234.642500",
          "120236.650000",
          "120238.657500",
          "120240.667500",
          "120242.675000",
          "120244.682500",
          "120246.690000",
          "120248.697500",
          "120250.707500",
          "120252.715000",
          "120254.722500",
          "120256.730000",
          "120258.737500",
          "120300.747500",
          "120302.755000",
          "120304.762500",
          "120306.770000",
          "120308.780000",
          "120310.787500",
          "120312.795000",
          "120314.802500",
          "120316.810000",
          "120318.820000",
          "120320.827500",
          "120322.835000",
          "120324.842500",
          "120326.850000",
          "120328.860000",
          "120330.867500",
          "120332.875000",
          "120334.882500",
          "120336.892500",
          "120338.900000",
          "120340.907500",
          "120342.915000",
          "120344.922500",
          "120346.932500",
          "120348.940000",
          "120350.947500",
          "120352.955000",
          "120354.962500",
          "120356.972500",
          "120358.980000",
          "120400.987500",
          "120402.995000",
          "120405.005000",
          "120407.012500",
          "120409.020000",
          "120411.027500",
          "120413.035000",
          "120415.045000",
          "120417.052500",
          "120419.060000",
          "120421.067500",
          "120423.075000",
          "120425.085000",
          "120427.092500",
          "120429.100000",
          "120431.107500",
          "120433.115000",
          "120435.125000",
          "120437.132500",
          "120439.140000",
          "120441.147500",
          "120443.157500",
          "120445.165000",
          "120447.172500",
          "120449.180000",
          "120451.187500",
          "120453.197500",
          "120455.205000",
          "120457.212500",
          "120459.220000",
          "120501.227500",
          "120503.237500",
          "120505.245000",
          "120507.252500",
          "120509.260000",
          "120511.270000",
          "120513.277500",
          "120515.285000",
          "120517.292500",
          "120519.300000",
          "120521.310000",
          "120523.317500",
          "120525.325000",
          "120527.332500",
          "120529.340000",
          "120531.350000",
          "120533.357500",
          "120535.365000",
          "120537.372500",
          "120539.382500",
          "120541.390000",
          "120543.397500",
          "120545.405000",
          "120547.412500",
          "120549.422500",
          "120551.430000",
          "120553.437500",
          "120555.445000",
          "120557.452500",
          "120559.462500",
          "120601.470000",
          "120603.477500",
          "120605.485000",
          "120607.492500",
          "120609.502500",
          "120611.510000",
          "120613.517500",
          "120615.525000",
          "120617.535000",
          "120619.542500",
          "120621.550000",
          "120623.557500",
          "120625.565000",
          "120627.575000",
          "120629.582500",
          "120631.590000",
          "120633.597500",
          "120635.605000",
          "120637.615000",
          "120639.622500",
          "120641.630000",
          "120643.637500",
          "120645.647500",
          "120647.655000",
          "120649.662500",
          "120651.670000",
          "120653.677500",
          "120655.687500",
          "120657.695000",
          "120659.702500",
          "120701.710000",
          "120703.717500",
          "120705.727500",
          "120707.735000",
          "120709.742500",
          "120711.750000",
          "120713.760000",
          "120715.767500",
          "120717.775000",
          "120719.782500",
          "120721.790000",
          "120723.800000",
          "120725.807500",
          "120727.815000",
          "120729.822500",
          "120731.830000",
          "120733.840000",
          "120735.847500",
          "120737.855000",
          "120739.862500",
          "120741.870000",
          "120743.880000",
          "120745.887500",
          "120747.895000",
          "120749.902500",
          "120751.912500",
          "120753.920000",
          "120755.927500",
          "120757.935000",
          "120759.942500",
          "120801.952500",
          "120803.960000",
          "120805.967500",
          "120807.975000",
          "120809.982500",
          "120811.992500",
          "120814.000000",
          "120816.007500",
          "120818.015000",
          "120820.025000",
          "120822.032500",
          "120824.040000",
          "120826.047500",
          "120828.055000",
          "120830.065000",
          "120832.072500",
          "120834.080000",
          "120836.087500",
          "120838.095000",
          "120840.105000",
          "120842.112500",
          "120844.120000",
          "120846.127500",
          "120848.137500",
          "120850.145000",
          "120852.152500",
          "120854.160000",
          "120856.167500",
          "120858.177500",
          "120900.185000",
          "120902.192500",
          "120904.200000",
          "120906.207500",
          "120908.217500",
          "120910.225000",
          "120912.232500",
          "120914.240000",
          "120916.250000",
          "120918.257500",
          "120920.265000",
          "120922.272500",
          "120924.280000",
          "120926.290000",
          "120928.297500",
          "120930.305000",
          "120932.312500",
          "120934.320000",
          "120936.330000",
          "120938.337500",
          "120940.345000",
          "120942.352500",
          "120944.360000",
          "120946.370000",
          "120948.377500",
          "120950.385000",
          "120952.392500",
          "120954.402500",
          "120956.410000",
          "120958.417500",
          "121000.425000",
          "121002.432500",
          "121004.442500",
          "121006.450000",
          "121008.457500",
          "121010.465000",
          "121012.472500",
          "121014.482500",
          "121016.490000",
          "121018.497500",
          "121020.505000",
          "121022.515000",
          "121024.522500",
          "121026.530000",
          "121028.537500",
          "121030.545000",
          "121032.555000",
          "121034.562500"
        ],
        "ContentTime": [
          "120323.906000",
          "120323.906000",
          "120323.906000",
          "120323.906000",
          "120323.906000",
          "120323.906000",
          "120323.921000",
          "120323.921000",
          "120323.921000",
          "120323.921000",
          "120323.921000",
          "120323.921000",
          "120323.921000",
          "120323.937000",
          "120323.937000",
          "120323.937000",
          "120323.937000",
          "120323.937000",
          "120323.937000",
          "120323.953000",
          "120323.953000",
          "120323.953000",
          "120323.953000",
          "120323.953000",
          "120403.890000",
          "120403.906000",
          "120403.906000",
          "120403.906000",
          "120403.906000",
          "120403.906000",
          "120403.906000",
          "120403.906000",
          "120403.921000",
          "120403.921000",
          "120403.921000",
          "120403.921000",
          "120403.921000",
          "120403.921000",
          "120403.921000",
          "120403.921000",
          "120403.937000",
          "120403.937000",
          "120403.937000",
          "120403.937000",
          "120443.890000",
          "120443.906000",
          "120443.906000",
          "120443.906000",
          "120443.906000",
          "120443.906000",
          "120443.906000",
          "120443.906000",
          "120443.921000",
          "120443.921000",
          "120443.921000",
          "120443.921000",
          "120443.921000",
          "120443.921000",
          "120443.921000",
          "120443.937000",
          "120443.937000",
          "120443.937000",
          "120443.937000",
          "120443.937000",
          "120523.890000",
          "120523.906000",
          "120523.906000",
          "120523.906000",
          "120523.906000",
          "120523.906000",
          "120523.906000",
          "120523.906000",
          "120523.921000",
          "120523.921000",
          "120523.921000",
          "120523.921000",
          "120523.921000",
          "120523.921000",
          "120523.921000",
          "120523.921000",
          "120523.937000",
          "120523.937000",
          "120523.937000",
          "120523.937000",
          "120603.890000",
          "120603.906000",
          "120603.906000",
          "120603.906000",
          "120603.906000",
          "120603.906000",
          "120603.906000",
          "120603.906000",
          "120603.921000",
          "120603.921000",
          "120603.921000",
          "120603.921000",
          "120603.921000",
          "120603.921000",
          "120603.921000",
          "120603.937000",
          "120603.937000",
          "120603.937000",
          "120603.937000",
          "120603.937000",
          "120643.890000",
          "120643.906000",
          "120643.906000",
          "120643.906000",
          "120643.906000",
          "120643.906000",
          "120643.906000",
          "120643.906000",
          "120643.921000",
          "120643.921000",
          "120643.921000",
          "120643.921000",
          "120643.921000",
          "120643.921000",
          "120643.921000",
          "120643.921000",
          "120643.937000",
          "120643.937000",
          "120643.937000",
          "120643.937000",
          "120723.890000",
          "120723.906000",
          "120723.906000",
          "120723.906000",
          "120723.906000",
          "120723.921000",
          "120723.921000",
          "120723.921000",
          "120723.921000",
          "120723.921000",
          "120723.921000",
          "120723.921000",
          "120723.921000",
          "120723.937000",
          "120723.937000",
          "120723.937000",
          "120723.937000",
          "120723.937000",
          "120723.937000",
          "120723.937000",
          "120803.890000",
          "120803.906000",
          "120803.906000",
          "120803.906000",
          "120803.906000",
          "120803.906000",
          "120803.906000",
          "120803.906000",
          "120803.906000",
          "120803.921000",
          "120803.921000",
          "120803.921000",
          "120803.921000",
          "120803.921000",
          "120803.921000",
          "120803.921000",
          "120803.937000",
          "120803.937000",
          "120803.937000",
          "120803.937000",
          "120843.890000",
          "120843.906000",
          "120843.906000",
          "120843.906000",
          "120843.906000",
          "120843.906000",
          "120843.906000",
          "120843.906000",
          "120843.921000",
          "120843.921000",
          "120843.921000",
          "120843.921000",
          "120843.921000",
          "120843.921000",
          "120843.921000",
          "120843.937000",
          "120843.937000",
          "120843.937000",
          "120843.937000",
          "120843.937000",
          "120923.890000",
          "120923.906000",
          "120923.906000",
          "120923.906000",
          "120923.906000",
          "120923.906000",
          "120923.906000",
          "120923.906000",
          "120923.921000",
          "120923.921000",
          "120923.921000",
          "120923.921000",
          "120923.921000",
          "120923.921000",
          "120923.921000",
          "120923.921000",
          "120923.937000",
          "120923.937000",
          "120923.937000",
          "120923.937000",
          "121003.890000",
          "121003.906000",
          "121003.906000",
          "121003.906000",
          "121003.906000",
          "121003.906000",
          "121003.906000",
          "121003.906000",
          "121003.921000",
          "121003.921000",
          "121003.921000",
          "121003.921000",
          "121003.921000",
          "121003.921000",
          "121003.921000",
          "121003.921000",
          "121003.937000",
          "121003.937000",
          "121003.937000",
          "121003.937000",
          "121034.000000",
          "121034.000000",
          "121034.000000",
          "121034.000000",
          "121034.000000",
          "121034.000000",
          "121034.015000",
          "121034.015000",
          "121034.015000",
          "121034.015000",
          "121034.015000",
          "121034.015000",
          "121034.015000",
          "121034.015000",
          "121034.031000",
          "121034.031000"
        ],
        "InstanceCreationTime": [
          "120323.906000",
          "120323.906000",
          "120323.906000",
          "120323.906000",
          "120323.906000",
          "120323.906000",
          "120323.921000",
          "120323.921000",
          "120323.921000",
          "120323.921000",
          "120323.921000",
          "120323.921000",
          "120323.921000",
          "120323.937000",
          "120323.937000",
          "120323.937000",
          "120323.937000",
          "120323.937000",
          "120323.937000",
          "120323.953000",
          "120323.953000",
          "120323.953000",
          "120323.953000",
          "120323.953000",
          "120403.890000",
          "120403.906000",
          "120403.906000",
          "120403.906000",
          "120403.906000",
          "120403.906000",
          "120403.906000",
          "120403.906000",
          "120403.921000",
          "120403.921000",
          "120403.921000",
          "120403.921000",
          "120403.921000",
          "120403.921000",
          "120403.921000",
          "120403.921000",
          "120403.937000",
          "120403.937000",
          "120403.937000",
          "120403.937000",
          "120443.890000",
          "120443.906000",
          "120443.906000",
          "120443.906000",
          "120443.906000",
          "120443.906000",
          "120443.906000",
          "120443.906000",
          "120443.921000",
          "120443.921000",
          "120443.921000",
          "120443.921000",
          "120443.921000",
          "120443.921000",
          "120443.921000",
          "120443.937000",
          "120443.937000",
          "120443.937000",
          "120443.937000",
          "120443.937000",
          "120523.890000",
          "120523.906000",
          "120523.906000",
          "120523.906000",
          "120523.906000",
          "120523.906000",
          "120523.906000",
          "120523.906000",
          "120523.921000",
          "120523.921000",
          "120523.921000",
          "120523.921000",
          "120523.921000",
          "120523.921000",
          "120523.921000",
          "120523.921000",
          "120523.937000",
          "120523.937000",
          "120523.937000",
          "120523.937000",
          "120603.890000",
          "120603.906000",
          "120603.906000",
          "120603.906000",
          "120603.906000",
          "120603.906000",
          "120603.906000",
          "120603.906000",
          "120603.921000",
          "120603.921000",
          "120603.921000",
          "120603.921000",
          "120603.921000",
          "120603.921000",
          "120603.921000",
          "120603.937000",
          "120603.937000",
          "120603.937000",
          "120603.937000",
          "120603.937000",
          "120643.890000",
          "120643.906000",
          "120643.906000",
          "120643.906000",
          "120643.906000",
          "120643.906000",
          "120643.906000",
          "120643.906000",
          "120643.921000",
          "120643.921000",
          "120643.921000",
          "120643.921000",
          "120643.921000",
          "120643.921000",
          "120643.921000",
          "120643.921000",
          "120643.937000",
          "120643.937000",
          "120643.937000",
          "120643.937000",
          "120723.890000",
          "120723.906000",
          "120723.906000",
          "120723.906000",
          "120723.906000",
          "120723.921000",
          "120723.921000",
          "120723.921000",
          "120723.921000",
          "120723.921000",
          "120723.921000",
          "120723.921000",
          "120723.921000",
          "120723.937000",
          "120723.937000",
          "120723.937000",
          "120723.937000",
          "120723.937000",
          "120723.937000",
          "120723.937000",
          "120803.890000",
          "120803.906000",
          "120803.906000",
          "120803.906000",
          "120803.906000",
          "120803.906000",
          "120803.906000",
          "120803.906000",
          "120803.906000",
          "120803.921000",
          "120803.921000",
          "120803.921000",
          "120803.921000",
          "120803.921000",
          "120803.921000",
          "120803.921000",
          "120803.937000",
          "120803.937000",
          "120803.937000",
          "120803.937000",
          "120843.890000",
          "120843.906000",
          "120843.906000",
          "120843.906000",
          "120843.906000",
          "120843.906000",
          "120843.906000",
          "120843.906000",
          "120843.921000",
          "120843.921000",
          "120843.921000",
          "120843.921000",
          "120843.921000",
          "120843.921000",
          "120843.921000",
          "120843.937000",
          "120843.937000",
          "120843.937000",
          "120843.937000",
          "120843.937000",
          "120923.890000",
          "120923.906000",
          "120923.906000",
          "120923.906000",
          "120923.906000",
          "120923.906000",
          "120923.906000",
          "120923.906000",
          "120923.921000",
          "120923.921000",
          "120923.921000",
          "120923.921000",
          "120923.921000",
          "120923.921000",
          "120923.921000",
          "120923.921000",
          "120923.937000",
          "120923.937000",
          "120923.937000",
          "120923.937000",
          "121003.890000",
          "121003.906000",
          "121003.906000",
          "121003.906000",
          "121003.906000",
          "121003.906000",
          "121003.906000",
          "121003.906000",
          "121003.921000",
          "121003.921000",
          "121003.921000",
          "121003.921000",
          "121003.921000",
          "121003.921000",
          "121003.921000",
          "121003.921000",
          "121003.937000",
          "121003.937000",
          "121003.937000",
          "121003.937000",
          "121034.000000",
          "121034.000000",
          "121034.000000",
          "121034.000000",
          "121034.000000",
          "121034.000000",
          "121034.015000",
          "121034.015000",
          "121034.015000",
          "121034.015000",
          "121034.015000",
          "121034.015000",
          "121034.015000",
          "121034.015000",
          "121034.031000",
          "121034.031000"
        ],
        "InstanceNumber": [
          1,
          2,
          3,
          4,
          5,
          6,
          7,
          8,
          9,
          10,
          11,
          12,
          13,
          14,
          15,
          16,
          17,
          18,
          19,
          20,
          21,
          22,
          23,
          24,
          25,
          26,
          27,
          28,
          29,
          30,
          31,
          32,
          33,
          34,
          35,
          36,
          37,
          38,
          39,
          40,
          41,
          42,
          43,
          44,
          45,
