{
  "aor": 0.0009701162790697673,
  "aqi": 0.04209283914728682,
  "bids_meta": {
    "AcquisitionMatrixPE": 68,
    "AcquisitionNumber": 1,
    "AcquisitionTime": "10:18:55.400000",
    "BandwidthPerPixelPhaseEncode": 31.289,
    "BaseResolution": 68,
    "CogAtlasID": "TODO",
    "CoilString": "C:HEA;HEP",
    "ConversionSoftware": "dcm2niix",
    "ConversionSoftwareVersion": "v1.0.20190902",
    "DerivedVendorReportedEchoSpacing": 0.000470002,
    "DeviceSerialNumber": "35450",
    "DwellTime": 3e-06,
    "EchoTime": 0.023,
    "EffectiveEchoSpacing": 0.000470002,
    "FlipAngle": 76,
    "ImageOrientationPatientDICOM": [
      0.999818,
      0.00206157,
      0.0189735,
      -6.85458e-09,
      0.994149,
      -0.108019
    ],
    "ImageType": [
      "ORIGINAL",
      "PRIMARY",
      "M",
      "ND",
      "MOSAIC"
    ],
    "ImagingFrequency": 123.219,
    "InPlanePhaseEncodingDirectionDICOM": "COL",
    "InstitutionAddress": "Univeristy_Ave._197_Newark_North_East_US_07102-1814",
    "InstitutionName": "RUBIC",
    "InstitutionalDepartmentName": "Department",
    "MRAcquisitionType": "2D",
    "MagneticFieldStrength": 3,
    "Manufacturer": "Siemens",
    "ManufacturersModelName": "TrioTim",
    "Modality": "MR",
    "PartialFourier": 1,
    "PatientPosition": "HFS",
    "PercentPhaseFOV": 100,
    "PhaseEncodingDirection": "j-",
    "PhaseEncodingSteps": 68,
    "PhaseResolution": 1,
    "PixelBandwidth": 2451,
    "ProcedureStepDescription": "Krekelberg_David",
    "ProtocolName": "ep2d_bold_CardGameEPI_3",
    "PulseSequenceDetails": "%SiemensSeq%_ep2d_bold",
    "ReceiveCoilName": "HeadMatrix",
    "ReconMatrixPE": 68,
    "RepetitionTime": 2,
    "SAR": 0.166056,
    "ScanOptions": "FS",
    "ScanningSequence": "EP",
    "SequenceName": "_epfid2d1_68",
    "SequenceVariant": "SK",
    "SeriesDescription": "ep2d_bold_CardGameEPI_3",
    "SeriesNumber": 11,
    "ShimSetting": [
      2059,
      -624,
      -8028,
      906,
      372,
      170,
      -1519,
      -340
    ],
    "SliceThickness": 2.5,
    "SliceTiming": [
      1.9525,
      1.895,
      1.84,
      1.785,
      1.7275,
      1.6725,
      1.6175,
      1.56,
      1.505,
      1.45,
      1.395,
      1.3375,
      1.2825,
      1.2275,
      1.17,
      1.115,
      1.06,
      1.0025,
      0.9475,
      0.8925,
      0.8375,
      0.78,
      0.725,
      0.67,
      0.6125,
      0.5575,
      0.5025,
      0.445,
      0.39,
      0.335,
      0.2775,
      0.2225,
      0.1675,
      0.1125,
      0.055,
      0
    ],
    "SoftwareVersions": "syngo_MR_B19",
    "SpacingBetweenSlices": 3,
    "StationName": "MRC35450",
    "TaskName": "cardgame",
    "TotalReadoutTime": 0.0314901,
    "TxRefAmp": 325.464,
    "dataset": "<unset>",
    "dcmmeta_affine": [
      [
        -2.999453544616699,
        -2.0563749814073162e-08,
        0.05725546181201935,
        96.95831298828125
      ],
      [
        -0.006184699945151806,
        2.9824464321136475,
        -0.3239980638027191,
        -70.84557342529297
      ],
      [
        0.05692044645547867,
        0.32405710220336914,
        2.981903314590454,
        -65.49089813232422
      ],
      [
        0.0,
        0.0,
        0.0,
        1.0
      ]
    ],
    "dcmmeta_reorient_transform": [
      [
        0.0,
        -1.0,
        0.0,
        67.0
      ],
      [
        1.0,
        0.0,
        0.0,
        0.0
      ],
      [
        0.0,
        0.0,
        1.0,
        0.0
      ],
      [
        0.0,
        0.0,
        0.0,
        1.0
      ]
    ],
    "dcmmeta_shape": [
      68,
      68,
      36,
      258
    ],
    "dcmmeta_slice_dim": 2,
    "dcmmeta_version": 0.6,
    "global": {
      "const": {
        "AcquisitionMatrix": [
          68,
          0,
          0,
          68
        ],
        "AngioFlag": "N",
        "BitsAllocated": 16,
        "BitsStored": 12,
        "Columns": 408,
        "EchoNumbers": 1,
        "EchoTime": 23.0,
        "EchoTrainLength": 1,
        "FlipAngle": 76.0,
        "HighBit": 11,
        "ImageOrientationPatient": [
          0.99981786186417,
          0.00206156666259,
          0.01897348255472,
          -6.854583e-09,
          0.99414882621586,
          -0.108019032275
        ],
        "ImagePositionPatient": [
          -606.86541878351,
          -637.04564195712,
          1.6341553900114
        ],
        "ImageType": [
          "ORIGINAL",
          "PRIMARY",
          "M",
          "ND",
          "MOSAIC"
        ],
        "ImagedNucleus": "1H",
        "ImagingFrequency": 123.218773,
        "InPlanePhaseEncodingDirection": "COL",
        "MRAcquisitionType": "2D",
        "MagneticFieldStrength": 3.0,
        "Manufacturer": "SIEMENS",
        "ManufacturerModelName": "TrioTim",
        "Modality": "MR",
        "NumberOfAverages": 1.0,
        "NumberOfPhaseEncodingSteps": 68,
        "PercentPhaseFieldOfView": 100.0,
        "PercentSampling": 100.0,
        "PerformedProcedureStepStartTime": "090350.328000",
        "PhotometricInterpretation": "MONOCHROME2",
        "PixelBandwidth": 2451.0,
        "PixelRepresentation": 0,
        "PixelSpacing": [
          3.0,
          3.0
        ],
        "ProtocolName": "ep2d_bold_CardGameEPI_3",
        "RepetitionTime": 2000.0,
        "Rows": 408,
        "SAR": 0.16605556320192,
        "SamplesPerPixel": 1,
        "ScanOptions": "FS",
        "ScanningSequence": "EP",
        "SequenceName": "*epfid2d1_68",
        "SequenceVariant": "SK",
        "SeriesDescription": "ep2d_bold_CardGameEPI_3",
        "SeriesNumber": 11,
        "SeriesTime": "101936.781000",
        "SliceLocation": -55.594102550827,
        "SliceThickness": 2.5,
        "SmallestImagePixelValue": 0,
        "SoftwareVersions": "syngo MR B19",
        "SpacingBetweenSlices": 3.000000029265,
        "SpecificCharacterSet": "ISO_IR 100",
        "StudyID": "1",
        "StudyTime": "090350.218000",
        "TransmitCoilName": "Body",
        "VariableFlipAngleFlag": "N",
        "WindowCenterWidthExplanation": "Algo1",
        "dBdt": 0.0
      },
      "slices": {}
    },
    "modality": "bold",
    "run_id": 3,
    "subject_id": "235",
    "task_id": "cardgame",
    "time": {
      "samples": {
        "AcquisitionNumber": [
          1,
          2,
          3,
          4,
          5,
          6,
          7,
          8,
          9,
          10,
          11,
          12,
          13,
          14,
          15,
          16,
          17,
          18,
          19,
          20,
          21,
          22,
          23,
          24,
          25,
          26,
          27,
          28,
          29,
          30,
          31,
          32,
          33,
          34,
          35,
          36,
          37,
          38,
          39,
          40,
          41,
          42,
          43,
          44,
          45,
          46,
          47,
          48,
          49,
          50,
          51,
          52,
          53,
          54,
          55,
          56,
          57,
          58,
          59,
          60,
          61,
          62,
          63,
          64,
          65,
          66,
          67,
          68,
          69,
          70,
          71,
          72,
          73,
          74,
          75,
          76,
          77,
          78,
          79,
          80,
          81,
          82,
          83,
          84,
          85,
          86,
          87,
          88,
          89,
          90,
          91,
          92,
          93,
          94,
          95,
          96,
          97,
          98,
          99,
          100,
          101,
          102,
          103,
          104,
          105,
          106,
          107,
          108,
          109,
          110,
          111,
          112,
          113,
          114,
          115,
          116,
          117,
          118,
          119,
          120,
          121,
          122,
          123,
          124,
          125,
          126,
          127,
          128,
          129,
          130,
          131,
          132,
          133,
          134,
          135,
          136,
          137,
          138,
          139,
          140,
          141,
          142,
          143,
          144,
          145,
          146,
          147,
          148,
          149,
          150,
          151,
          152,
          153,
          154,
          155,
          156,
          157,
          158,
          159,
          160,
          161,
          162,
          163,
          164,
          165,
          166,
          167,
          168,
          169,
          170,
          171,
          172,
          173,
          174,
          175,
          176,
          177,
          178,
          179,
          180,
          181,
          182,
          183,
          184,
          185,
          186,
          187,
          188,
          189,
          190,
          191,
          192,
          193,
          194,
          195,
          196,
          197,
          198,
          199,
          200,
          201,
          202,
          203,
          204,
          205,
          206,
          207,
          208,
          209,
          210,
          211,
          212,
          213,
          214,
          215,
          216,
          217,
          218,
          219,
          220,
          221,
          222,
          223,
          224,
          225,
          226,
          227,
          228,
          229,
          230,
          231,
          232,
          233,
          234,
          235,
          236,
          237,
          238,
          239,
          240,
          241,
          242,
          243,
          244,
          245,
          246,
          247,
          248,
          249,
          250,
          251,
          252,
          253,
          254,
          255,
          256,
          257,
          258
        ],
        "AcquisitionTime": [
          "101855.400000",
          "101857.407500",
          "101859.415000",
          "101901.422500",
          "101903.430000",
          "101905.440000",
          "101907.447500",
          "101909.455000",
          "101911.462500",
          "101913.472500",
          "101915.480000",
          "101917.487500",
          "101919.495000",
          "101921.502500",
          "101923.512500",
          "101925.520000",
          "101927.527500",
          "101929.535000",
          "101931.542500",
          "101933.552500",
          "101935.560000",
          "101937.567500",
          "101939.575000",
          "101941.585000",
          "101943.592500",
          "101945.600000",
          "101947.607500",
          "101949.615000",
          "101951.625000",
          "101953.632500",
          "101955.640000",
          "101957.647500",
          "101959.655000",
          "102001.665000",
          "102003.672500",
          "102005.680000",
          "102007.687500",
          "102009.695000",
          "102011.705000",
          "102013.712500",
          "102015.720000",
          "102017.727500",
          "102019.737500",
          "102021.745000",
          "102023.752500",
          "102025.760000",
          "102027.767500",
          "102029.777500",
          "102031.785000",
          "102033.792500",
          "102035.800000",
          "102037.807500",
          "102039.817500",
          "102041.825000",
          "102043.832500",
          "102045.840000",
          "102047.850000",
          "102049.857500",
          "102051.865000",
          "102053.872500",
          "102055.880000",
          "102057.890000",
          "102059.897500",
          "102101.905000",
          "102103.912500",
          "102105.920000",
          "102107.930000",
          "102109.937500",
          "102111.945000",
          "102113.952500",
          "102115.962500",
          "102117.970000",
          "102119.977500",
          "102121.985000",
          "102123.992500",
          "102126.002500",
          "102128.010000",
          "102130.017500",
          "102132.025000",
          "102134.032500",
          "102136.042500",
          "102138.050000",
          "102140.057500",
          "102142.065000",
          "102144.072500",
          "102146.082500",
          "102148.090000",
          "102150.097500",
          "102152.105000",
          "102154.115000",
          "102156.122500",
          "102158.130000",
          "102200.137500",
          "102202.145000",
          "102204.155000",
          "102206.162500",
          "102208.170000",
          "102210.177500",
          "102212.185000",
          "102214.195000",
          "102216.202500",
          "102218.210000",
          "102220.217500",
          "102222.227500",
          "102224.235000",
          "102226.242500",
          "102228.250000",
          "102230.257500",
          "102232.267500",
          "102234.275000",
          "102236.282500",
          "102238.290000",
          "102240.297500",
          "102242.307500",
          "102244.315000",
          "102246.322500",
          "102248.330000",
          "102250.340000",
          "102252.347500",
          "102254.355000",
          "102256.362500",
          "102258.370000",
          "102300.380000",
          "102302.387500",
          "102304.395000",
          "102306.402500",
          "102308.410000",
          "102310.420000",
          "102312.427500",
          "102314.435000",
          "102316.442500",
          "102318.452500",
          "102320.460000",
          "102322.467500",
          "102324.475000",
          "102326.482500",
          "102328.492500",
          "102330.500000",
          "102332.507500",
          "102334.515000",
          "102336.522500",
          "102338.532500",
          "102340.540000",
          "102342.547500",
          "102344.555000",
          "102346.562500",
          "102348.572500",
          "102350.580000",
          "102352.587500",
          "102354.595000",
          "102356.605000",
          "102358.612500",
          "102400.620000",
          "102402.627500",
          "102404.635000",
          "102406.645000",
          "102408.652500",
          "102410.660000",
          "102412.667500",
          "102414.675000",
          "102416.685000",
          "102418.692500",
          "102420.700000",
          "102422.707500",
          "102424.717500",
          "102426.725000",
          "102428.732500",
          "102430.740000",
          "102432.747500",
          "102434.757500",
          "102436.765000",
          "102438.772500",
          "102440.780000",
          "102442.787500",
          "102444.797500",
          "102446.805000",
          "102448.812500",
          "102450.820000",
          "102452.830000",
          "102454.837500",
          "102456.845000",
          "102458.852500",
          "102500.860000",
          "102502.870000",
          "102504.877500",
          "102506.885000",
          "102508.892500",
          "102510.900000",
          "102512.910000",
          "102514.917500",
          "102516.925000",
          "102518.932500",
          "102520.940000",
          "102522.950000",
          "102524.957500",
          "102526.965000",
          "102528.972500",
          "102530.982500",
          "102532.990000",
          "102534.997500",
          "102537.005000",
          "102539.012500",
          "102541.022500",
          "102543.030000",
          "102545.037500",
          "102547.045000",
          "102549.052500",
          "102551.062500",
          "102553.070000",
          "102555.077500",
          "102557.085000",
          "102559.095000",
          "102601.102500",
          "102603.110000",
          "102605.117500",
          "102607.125000",
          "102609.135000",
          "102611.142500",
          "102613.150000",
          "102615.157500",
          "102617.165000",
          "102619.175000",
          "102621.182500",
          "102623.190000",
          "102625.197500",
          "102627.207500",
          "102629.215000",
          "102631.222500",
          "102633.230000",
          "102635.237500",
          "102637.247500",
          "102639.255000",
          "102641.262500",
          "102643.270000",
          "102645.277500",
          "102647.287500",
          "102649.295000",
          "102651.302500",
          "102653.310000",
          "102655.317500",
          "102657.327500",
          "102659.335000",
          "102701.342500",
          "102703.350000",
          "102705.360000",
          "102707.367500",
          "102709.375000",
          "102711.382500",
          "102713.390000",
          "102715.400000",
          "102717.407500",
          "102719.415000",
          "102721.422500",
          "102723.430000",
          "102725.440000",
          "102727.447500",
          "102729.455000",
          "102731.462500"
        ],
        "ContentTime": [
          "101936.781000",
          "101936.781000",
          "101936.781000",
          "101936.796000",
          "101936.796000",
          "101936.796000",
          "101936.796000",
          "101936.796000",
          "101936.796000",
          "101936.796000",
          "101936.812000",
          "101936.812000",
          "101936.812000",
          "101936.812000",
          "101936.812000",
          "101936.812000",
          "101936.812000",
          "101936.828000",
          "101936.828000",
          "101936.828000",
          "101936.828000",
          "102016.781000",
          "102016.781000",
          "102016.781000",
          "102016.781000",
          "102016.781000",
          "102016.781000",
          "102016.796000",
          "102016.796000",
          "102016.796000",
          "102016.796000",
          "102016.796000",
          "102016.796000",
          "102016.796000",
          "102016.812000",
          "102016.812000",
          "102016.812000",
          "102016.812000",
          "102016.812000",
          "102016.828000",
          "102016.828000",
          "102056.781000",
          "102056.781000",
          "102056.781000",
          "102056.781000",
          "102056.781000",
          "102056.781000",
          "102056.796000",
          "102056.796000",
          "102056.796000",
          "102056.796000",
          "102056.796000",
          "102056.796000",
          "102056.796000",
          "102056.812000",
          "102056.812000",
          "102056.812000",
          "102056.812000",
          "102056.812000",
          "102056.828000",
          "102056.828000",
          "102136.781000",
          "102136.781000",
          "102136.781000",
          "102136.781000",
          "102136.781000",
          "102136.796000",
          "102136.796000",
          "102136.796000",
          "102136.796000",
          "102136.796000",
          "102136.796000",
          "102136.796000",
          "102136.812000",
          "102136.812000",
          "102136.812000",
          "102136.812000",
          "102136.812000",
          "102136.812000",
          "102136.812000",
          "102136.812000",
          "102216.781000",
          "102216.781000",
          "102216.781000",
          "102216.781000",
          "102216.781000",
          "102216.796000",
          "102216.796000",
          "102216.796000",
          "102216.796000",
          "102216.796000",
          "102216.796000",
          "102216.796000",
          "102216.812000",
          "102216.812000",
          "102216.812000",
          "102216.812000",
          "102216.812000",
          "102216.828000",
          "102216.828000",
          "102216.828000",
          "102256.781000",
          "102256.781000",
          "102256.781000",
          "102256.781000",
          "102256.781000",
          "102256.796000",
          "102256.796000",
          "102256.796000",
          "102256.796000",
          "102256.796000",
          "102256.796000",
          "102256.796000",
          "102256.796000",
          "102256.812000",
          "102256.812000",
          "102256.812000",
          "102256.812000",
          "102256.812000",
          "102256.812000",
          "102256.812000",
          "102336.781000",
          "102336.781000",
          "102336.781000",
          "102336.781000",
          "102336.781000",
          "102336.796000",
          "102336.796000",
          "102336.796000",
          "102336.796000",
          "102336.796000",
          "102336.796000",
          "102336.796000",
          "102336.812000",
          "102336.812000",
          "102336.812000",
          "102336.812000",
          "102336.812000",
          "102336.812000",
          "102336.812000",
          "102336.812000",
          "102416.781000",
          "102416.781000",
          "102416.781000",
          "102416.781000",
          "102416.781000",
          "102416.796000",
          "102416.796000",
          "102416.796000",
          "102416.796000",
          "102416.796000",
          "102416.796000",
          "102416.796000",
          "102416.812000",
          "102416.812000",
          "102416.812000",
          "102416.812000",
          "102416.812000",
          "102416.812000",
          "102416.812000",
          "102416.828000",
          "102456.781000",
          "102456.781000",
          "102456.781000",
          "102456.781000",
          "102456.781000",
          "102456.796000",
          "102456.796000",
          "102456.796000",
          "102456.796000",
          "102456.796000",
          "102456.796000",
          "102456.796000",
          "102456.796000",
          "102456.812000",
          "102456.812000",
          "102456.812000",
          "102456.812000",
          "102456.812000",
          "102456.812000",
          "102456.812000",
          "102536.781000",
          "102536.781000",
          "102536.781000",
          "102536.781000",
          "102536.781000",
          "102536.796000",
          "102536.796000",
          "102536.796000",
          "102536.796000",
          "102536.796000",
          "102536.796000",
          "102536.796000",
          "102536.796000",
          "102536.812000",
          "102536.812000",
          "102536.812000",
          "102536.812000",
          "102536.812000",
          "102536.812000",
          "102536.812000",
          "102616.781000",
          "102616.781000",
          "102616.781000",
          "102616.781000",
          "102616.781000",
          "102616.796000",
          "102616.796000",
          "102616.796000",
          "102616.796000",
          "102616.796000",
          "102616.796000",
          "102616.796000",
          "102616.796000",
          "102616.812000",
          "102616.812000",
          "102616.812000",
          "102616.812000",
          "102616.812000",
          "102616.812000",
          "102616.812000",
          "102656.781000",
          "102656.781000",
          "102656.781000",
          "102656.781000",
          "102656.781000",
          "102656.796000",
          "102656.796000",
          "102656.796000",
          "102656.796000",
          "102656.796000",
          "102656.796000",
          "102656.796000",
          "102656.796000",
          "102656.812000",
          "102656.812000",
          "102656.812000",
          "102656.812000",
          "102656.812000",
          "102656.828000",
          "102656.828000",
          "102730.500000",
          "102730.500000",
          "102730.500000",
          "102730.500000",
          "102730.500000",
          "102730.500000",
          "102730.515000",
          "102730.515000",
          "102730.515000",
          "102730.515000",
          "102730.515000",
          "102730.515000",
          "102730.531000",
          "102730.531000",
          "102730.531000",
          "102730.531000",
          "102730.531000"
        ],
        "InstanceCreationTime": [
          "101936.781000",
          "101936.781000",
          "101936.781000",
          "101936.796000",
          "101936.796000",
          "101936.796000",
          "101936.796000",
          "101936.796000",
          "101936.796000",
          "101936.796000",
          "101936.812000",
          "101936.812000",
          "101936.812000",
          "101936.812000",
          "101936.812000",
          "101936.812000",
          "101936.812000",
          "101936.828000",
          "101936.828000",
          "101936.828000",
          "101936.828000",
          "102016.781000",
          "102016.781000",
          "102016.781000",
          "102016.781000",
          "102016.781000",
          "102016.781000",
          "102016.796000",
          "102016.796000",
          "102016.796000",
          "102016.796000",
          "102016.796000",
          "102016.796000",
          "102016.796000",
          "102016.812000",
          "102016.812000",
          "102016.812000",
          "102016.812000",
          "102016.812000",
          "102016.828000",
          "102016.828000",
          "102056.781000",
          "102056.781000",
          "102056.781000",
          "102056.781000",
          "102056.781000",
          "102056.781000",
          "102056.796000",
          "102056.796000",
          "102056.796000",
          "102056.796000",
          "102056.796000",
          "102056.796000",
          "102056.796000",
          "102056.812000",
          "102056.812000",
          "102056.812000",
          "102056.812000",
          "102056.812000",
          "102056.828000",
          "102056.828000",
          "102136.781000",
          "102136.781000",
          "102136.781000",
          "102136.781000",
          "102136.781000",
          "102136.796000",
          "102136.796000",
          "102136.796000",
          "102136.796000",
          "102136.796000",
          "102136.796000",
          "102136.796000",
          "102136.812000",
          "102136.812000",
          "102136.812000",
          "102136.812000",
          "102136.812000",
          "102136.812000",
          "102136.812000",
          "102136.812000",
          "102216.781000",
          "102216.781000",
          "102216.781000",
          "102216.781000",
          "102216.781000",
          "102216.796000",
          "102216.796000",
          "102216.796000",
          "102216.796000",
          "102216.796000",
          "102216.796000",
          "102216.796000",
          "102216.812000",
          "102216.812000",
          "102216.812000",
          "102216.812000",
          "102216.812000",
          "102216.828000",
          "102216.828000",
          "102216.828000",
          "102256.781000",
          "102256.781000",
          "102256.781000",
          "102256.781000",
          "102256.781000",
          "102256.796000",
          "102256.796000",
          "102256.796000",
          "102256.796000",
          "102256.796000",
          "102256.796000",
          "102256.796000",
          "102256.796000",
          "102256.812000",
          "102256.812000",
          "102256.812000",
          "102256.812000",
          "102256.812000",
          "102256.812000",
          "102256.812000",
          "102336.781000",
          "102336.781000",
          "102336.781000",
          "102336.781000",
          "102336.781000",
          "102336.796000",
          "102336.796000",
          "102336.796000",
          "102336.796000",
          "102336.796000",
          "102336.796000",
          "102336.796000",
          "102336.812000",
          "102336.812000",
          "102336.812000",
          "102336.812000",
          "102336.812000",
          "102336.812000",
          "102336.812000",
          "102336.812000",
          "102416.781000",
          "102416.781000",
          "102416.781000",
          "102416.781000",
          "102416.781000",
          "102416.796000",
          "102416.796000",
          "102416.796000",
          "102416.796000",
          "102416.796000",
          "102416.796000",
          "102416.796000",
          "102416.812000",
          "102416.812000",
          "102416.812000",
          "102416.812000",
          "102416.812000",
          "102416.812000",
          "102416.812000",
          "102416.828000",
          "102456.781000",
          "102456.781000",
          "102456.781000",
          "102456.781000",
          "102456.781000",
          "102456.796000",
          "102456.796000",
          "102456.796000",
          "102456.796000",
          "102456.796000",
          "102456.796000",
          "102456.796000",
          "102456.796000",
          "102456.812000",
          "102456.812000",
          "102456.812000",
          "102456.812000",
          "102456.812000",
          "102456.812000",
          "102456.812000",
          "102536.781000",
          "102536.781000",
          "102536.781000",
          "102536.781000",
          "102536.781000",
          "102536.796000",
          "102536.796000",
          "102536.796000",
          "102536.796000",
          "102536.796000",
          "102536.796000",
          "102536.796000",
          "102536.796000",
          "102536.812000",
          "102536.812000",
          "102536.812000",
          "102536.812000",
          "102536.812000",
          "102536.812000",
          "102536.812000",
          "102616.781000",
          "102616.781000",
          "102616.781000",
          "102616.781000",
          "102616.781000",
          "102616.796000",
          "102616.796000",
          "102616.796000",
          "102616.796000",
          "102616.796000",
          "102616.796000",
          "102616.796000",
          "102616.796000",
          "102616.812000",
          "102616.812000",
          "102616.812000",
          "102616.812000",
