{
  "aor": 0.0011735146443514644,
  "aqi": 0.0441474510460251,
  "bids_meta": {
    "AcquisitionMatrixPE": 68,
    "AcquisitionNumber": 1,
    "AcquisitionTime": "10:09:46.475000",
    "BandwidthPerPixelPhaseEncode": 31.289,
    "BaseResolution": 68,
    "CogAtlasID": "TODO",
    "CoilString": "C:HEA;HEP",
    "ConversionSoftware": "dcm2niix",
    "ConversionSoftwareVersion": "v1.0.20190902",
    "DerivedVendorReportedEchoSpacing": 0.000470002,
    "DeviceSerialNumber": "35450",
    "DwellTime": 3e-06,
    "EchoTime": 0.023,
    "EffectiveEchoSpacing": 0.000470002,
    "FlipAngle": 76,
    "ImageOrientationPatientDICOM": [
      0.999818,
      0.00206157,
      0.0189735,
      -6.85458e-09,
      0.994149,
      -0.108019
    ],
    "ImageType": [
      "ORIGINAL",
      "PRIMARY",
      "M",
      "ND",
      "MOSAIC"
    ],
    "ImagingFrequency": 123.219,
    "InPlanePhaseEncodingDirectionDICOM": "COL",
    "InstitutionAddress": "Univeristy_Ave._197_Newark_North_East_US_07102-1814",
    "InstitutionName": "RUBIC",
    "InstitutionalDepartmentName": "Department",
    "MRAcquisitionType": "2D",
    "MagneticFieldStrength": 3,
    "Manufacturer": "Siemens",
    "ManufacturersModelName": "TrioTim",
    "Modality": "MR",
    "PartialFourier": 1,
    "PatientPosition": "HFS",
    "PercentPhaseFOV": 100,
    "PhaseEncodingDirection": "j-",
    "PhaseEncodingSteps": 68,
    "PhaseResolution": 1,
    "PixelBandwidth": 2451,
    "ProcedureStepDescription": "Krekelberg_David",
    "ProtocolName": "ep2d_bold_RestEPI_4",
    "PulseSequenceDetails": "%SiemensSeq%_ep2d_bold",
    "ReceiveCoilName": "HeadMatrix",
    "ReconMatrixPE": 68,
    "RepetitionTime": 2,
    "SAR": 0.16602,
    "ScanOptions": "FS",
    "ScanningSequence": "EP",
    "SequenceName": "_epfid2d1_68",
    "SequenceVariant": "SK",
    "SeriesDescription": "ep2d_bold_RestEPI_4",
    "SeriesNumber": 10,
    "ShimSetting": [
      2059,
      -624,
      -8028,
      906,
      372,
      170,
      -1519,
      -340
    ],
    "SliceThickness": 2.5,
    "SliceTiming": [
      1.95,
      1.895,
      1.84,
      1.7825,
      1.7275,
      1.6725,
      1.615,
      1.56,
      1.505,
      1.45,
      1.3925,
      1.3375,
      1.2825,
      1.225,
      1.17,
      1.115,
      1.0575,
      1.0025,
      0.9475,
      0.89,
      0.835,
      0.78,
      0.725,
      0.6675,
      0.6125,
      0.5575,
      0.5,
      0.445,
      0.39,
      0.3325,
      0.2775,
      0.2225,
      0.1675,
      0.11,
      0.055,
      0
    ],
    "SoftwareVersions": "syngo_MR_B19",
    "SpacingBetweenSlices": 3,
    "StationName": "MRC35450",
    "TaskName": "rest",
    "TotalReadoutTime": 0.0314901,
    "TxRefAmp": 325.464,
    "dataset": "<unset>",
    "dcmmeta_affine": [
      [
        -2.999453544616699,
        -2.0563749814073162e-08,
        0.05725546181201935,
        96.95831298828125
      ],
      [
        -0.006184699945151806,
        2.9824464321136475,
        -0.3239980638027191,
        -70.84557342529297
      ],
      [
        0.05692044645547867,
        0.32405710220336914,
        2.981903314590454,
        -65.49089813232422
      ],
      [
        0.0,
        0.0,
        0.0,
        1.0
      ]
    ],
    "dcmmeta_reorient_transform": [
      [
        0.0,
        -1.0,
        0.0,
        67.0
      ],
      [
        1.0,
        0.0,
        0.0,
        0.0
      ],
      [
        0.0,
        0.0,
        1.0,
        0.0
      ],
      [
        0.0,
        0.0,
        0.0,
        1.0
      ]
    ],
    "dcmmeta_shape": [
      68,
      68,
      36,
      240
    ],
    "dcmmeta_slice_dim": 2,
    "dcmmeta_version": 0.6,
    "global": {
      "const": {
        "AcquisitionMatrix": [
          68,
          0,
          0,
          68
        ],
        "AngioFlag": "N",
        "BitsAllocated": 16,
        "BitsStored": 12,
        "Columns": 408,
        "EchoNumbers": 1,
        "EchoTime": 23.0,
        "EchoTrainLength": 1,
        "FlipAngle": 76.0,
        "HighBit": 11,
        "ImageOrientationPatient": [
          0.99981786186417,
          0.00206156666259,
          0.01897348255472,
          -6.854583e-09,
          0.99414882621586,
          -0.108019032275
        ],
        "ImagePositionPatient": [
          -606.86541878351,
          -637.04564195712,
          1.6341553900114
        ],
        "ImageType": [
          "ORIGINAL",
          "PRIMARY",
          "M",
          "ND",
          "MOSAIC"
        ],
        "ImagedNucleus": "1H",
        "ImagingFrequency": 123.21876,
        "InPlanePhaseEncodingDirection": "COL",
        "MRAcquisitionType": "2D",
        "MagneticFieldStrength": 3.0,
        "Manufacturer": "SIEMENS",
        "ManufacturerModelName": "TrioTim",
        "Modality": "MR",
        "NumberOfAverages": 1.0,
        "NumberOfPhaseEncodingSteps": 68,
        "PercentPhaseFieldOfView": 100.0,
        "PercentSampling": 100.0,
        "PerformedProcedureStepStartTime": "090350.328000",
        "PhotometricInterpretation": "MONOCHROME2",
        "PixelBandwidth": 2451.0,
        "PixelRepresentation": 0,
        "PixelSpacing": [
          3.0,
          3.0
        ],
        "ProtocolName": "ep2d_bold_RestEPI_4",
        "RepetitionTime": 2000.0,
        "Rows": 408,
        "SAR": 0.1660200447023,
        "SamplesPerPixel": 1,
        "ScanOptions": "FS",
        "ScanningSequence": "EP",
        "SequenceName": "*epfid2d1_68",
        "SequenceVariant": "SK",
        "SeriesDescription": "ep2d_bold_RestEPI_4",
        "SeriesNumber": 10,
        "SeriesTime": "100956.015000",
        "SliceLocation": -55.594102550827,
        "SliceThickness": 2.5,
        "SmallestImagePixelValue": 0,
        "SoftwareVersions": "syngo MR B19",
        "SpacingBetweenSlices": 3.000000029265,
        "SpecificCharacterSet": "ISO_IR 100",
        "StudyID": "1",
        "StudyTime": "090350.218000",
        "TransmitCoilName": "Body",
        "VariableFlipAngleFlag": "N",
        "WindowCenterWidthExplanation": "Algo1",
        "dBdt": 0.0
      },
      "slices": {}
    },
    "modality": "bold",
    "run_id": 4,
    "subject_id": "235",
    "task_id": "rest",
    "time": {
      "samples": {
        "AcquisitionNumber": [
          1,
          2,
          3,
          4,
          5,
          6,
          7,
          8,
          9,
          10,
          11,
          12,
          13,
          14,
          15,
          16,
          17,
          18,
          19,
          20,
          21,
          22,
          23,
          24,
          25,
          26,
          27,
          28,
          29,
          30,
          31,
          32,
          33,
          34,
          35,
          36,
          37,
          38,
          39,
          40,
          41,
          42,
          43,
          44,
          45,
          46,
          47,
          48,
          49,
          50,
          51,
          52,
          53,
          54,
          55,
          56,
          57,
          58,
          59,
          60,
          61,
          62,
          63,
          64,
          65,
          66,
          67,
          68,
          69,
          70,
          71,
          72,
          73,
          74,
          75,
          76,
          77,
          78,
          79,
          80,
          81,
          82,
          83,
          84,
          85,
          86,
          87,
          88,
          89,
          90,
          91,
          92,
          93,
          94,
          95,
          96,
          97,
          98,
          99,
          100,
          101,
          102,
          103,
          104,
          105,
          106,
          107,
          108,
          109,
          110,
          111,
          112,
          113,
          114,
          115,
          116,
          117,
          118,
          119,
          120,
          121,
          122,
          123,
          124,
          125,
          126,
          127,
          128,
          129,
          130,
          131,
          132,
          133,
          134,
          135,
          136,
          137,
          138,
          139,
          140,
          141,
          142,
          143,
          144,
          145,
          146,
          147,
          148,
          149,
          150,
          151,
          152,
          153,
          154,
          155,
          156,
          157,
          158,
          159,
          160,
          161,
          162,
          163,
          164,
          165,
          166,
          167,
          168,
          169,
          170,
          171,
          172,
          173,
          174,
          175,
          176,
          177,
          178,
          179,
          180,
          181,
          182,
          183,
          184,
          185,
          186,
          187,
          188,
          189,
          190,
          191,
          192,
          193,
          194,
          195,
          196,
          197,
          198,
          199,
          200,
          201,
          202,
          203,
          204,
          205,
          206,
          207,
          208,
          209,
          210,
          211,
          212,
          213,
          214,
          215,
          216,
          217,
          218,
          219,
          220,
          221,
          222,
          223,
          224,
          225,
          226,
          227,
          228,
          229,
          230,
          231,
          232,
          233,
          234,
          235,
          236,
          237,
          238,
          239,
          240
        ],
        "AcquisitionTime": [
          "100946.475000",
          "100948.482500",
          "100950.492500",
          "100952.500000",
          "100954.507500",
          "100956.515000",
          "100958.525000",
          "101000.532500",
          "101002.540000",
          "101004.547500",
          "101006.555000",
          "101008.565000",
          "101010.572500",
          "101012.580000",
          "101014.587500",
          "101016.595000",
          "101018.605000",
          "101020.612500",
          "101022.620000",
          "101024.627500",
          "101026.637500",
          "101028.645000",
          "101030.652500",
          "101032.660000",
          "101034.667500",
          "101036.677500",
          "101038.685000",
          "101040.692500",
          "101042.700000",
          "101044.707500",
          "101046.717500",
          "101048.725000",
          "101050.732500",
          "101052.740000",
          "101054.750000",
          "101056.757500",
          "101058.765000",
          "101100.772500",
          "101102.780000",
          "101104.790000",
          "101106.797500",
          "101108.805000",
          "101110.812500",
          "101112.820000",
          "101114.830000",
          "101116.837500",
          "101118.845000",
          "101120.852500",
          "101122.862500",
          "101124.870000",
          "101126.877500",
          "101128.885000",
          "101130.892500",
          "101132.902500",
          "101134.910000",
          "101136.917500",
          "101138.925000",
          "101140.932500",
          "101142.942500",
          "101144.950000",
          "101146.957500",
          "101148.965000",
          "101150.972500",
          "101152.982500",
          "101154.990000",
          "101156.997500",
          "101159.005000",
          "101201.015000",
          "101203.022500",
          "101205.030000",
          "101207.037500",
          "101209.045000",
          "101211.055000",
          "101213.062500",
          "101215.070000",
          "101217.077500",
          "101219.085000",
          "101221.095000",
          "101223.102500",
          "101225.110000",
          "101227.117500",
          "101229.127500",
          "101231.135000",
          "101233.142500",
          "101235.150000",
          "101237.157500",
          "101239.167500",
          "101241.175000",
          "101243.182500",
          "101245.190000",
          "101247.197500",
          "101249.207500",
          "101251.215000",
          "101253.222500",
          "101255.230000",
          "101257.240000",
          "101259.247500",
          "101301.255000",
          "101303.262500",
          "101305.270000",
          "101307.280000",
          "101309.287500",
          "101311.295000",
          "101313.302500",
          "101315.310000",
          "101317.320000",
          "101319.327500",
          "101321.335000",
          "101323.342500",
          "101325.350000",
          "101327.360000",
          "101329.367500",
          "101331.375000",
          "101333.382500",
          "101335.392500",
          "101337.400000",
          "101339.407500",
          "101341.415000",
          "101343.422500",
          "101345.432500",
          "101347.440000",
          "101349.447500",
          "101351.455000",
          "101353.462500",
          "101355.472500",
          "101357.480000",
          "101359.487500",
          "101401.495000",
          "101403.505000",
          "101405.512500",
          "101407.520000",
          "101409.527500",
          "101411.535000",
          "101413.545000",
          "101415.552500",
          "101417.560000",
          "101419.567500",
          "101421.575000",
          "101423.585000",
          "101425.592500",
          "101427.600000",
          "101429.607500",
          "101431.617500",
          "101433.625000",
          "101435.632500",
          "101437.640000",
          "101439.647500",
          "101441.657500",
          "101443.665000",
          "101445.672500",
          "101447.680000",
          "101449.687500",
          "101451.697500",
          "101453.705000",
          "101455.712500",
          "101457.720000",
          "101459.727500",
          "101501.737500",
          "101503.745000",
          "101505.752500",
          "101507.760000",
          "101509.770000",
          "101511.777500",
          "101513.785000",
          "101515.792500",
          "101517.800000",
          "101519.810000",
          "101521.817500",
          "101523.825000",
          "101525.832500",
          "101527.840000",
          "101529.850000",
          "101531.857500",
          "101533.865000",
          "101535.872500",
          "101537.882500",
          "101539.890000",
          "101541.897500",
          "101543.905000",
          "101545.912500",
          "101547.922500",
          "101549.930000",
          "101551.937500",
          "101553.945000",
          "101555.952500",
          "101557.962500",
          "101559.970000",
          "101601.977500",
          "101603.985000",
          "101605.995000",
          "101608.002500",
          "101610.010000",
          "101612.017500",
          "101614.025000",
          "101616.035000",
          "101618.042500",
          "101620.050000",
          "101622.057500",
          "101624.065000",
          "101626.075000",
          "101628.082500",
          "101630.090000",
          "101632.097500",
          "101634.105000",
          "101636.115000",
          "101638.122500",
          "101640.130000",
          "101642.137500",
          "101644.147500",
          "101646.155000",
          "101648.162500",
          "101650.170000",
          "101652.177500",
          "101654.187500",
          "101656.195000",
          "101658.202500",
          "101700.210000",
          "101702.217500",
          "101704.227500",
          "101706.235000",
          "101708.242500",
          "101710.250000",
          "101712.260000",
          "101714.267500",
          "101716.275000",
          "101718.282500",
          "101720.290000",
          "101722.300000",
          "101724.307500",
          "101726.315000",
          "101728.322500",
          "101730.330000",
          "101732.340000",
          "101734.347500",
          "101736.355000",
          "101738.362500",
          "101740.372500",
          "101742.380000",
          "101744.387500",
          "101746.395000"
        ],
        "ContentTime": [
          "100956.015000",
          "100956.015000",
          "100956.015000",
          "100956.031000",
          "100956.031000",
          "101036.015000",
          "101036.015000",
          "101036.015000",
          "101036.015000",
          "101036.015000",
          "101036.015000",
          "101036.031000",
          "101036.031000",
          "101036.031000",
          "101036.031000",
          "101036.031000",
          "101036.031000",
          "101036.031000",
          "101036.046000",
          "101036.046000",
          "101036.046000",
          "101036.046000",
          "101036.046000",
          "101036.046000",
          "101036.046000",
          "101116.015000",
          "101116.015000",
          "101116.015000",
          "101116.015000",
          "101116.015000",
          "101116.015000",
          "101116.031000",
          "101116.031000",
          "101116.031000",
          "101116.031000",
          "101116.031000",
          "101116.031000",
          "101116.031000",
          "101116.046000",
          "101116.046000",
          "101116.046000",
          "101116.046000",
          "101116.046000",
          "101116.046000",
          "101116.046000",
          "101156.015000",
          "101156.015000",
          "101156.015000",
          "101156.015000",
          "101156.015000",
          "101156.015000",
          "101156.031000",
          "101156.031000",
          "101156.031000",
          "101156.031000",
          "101156.031000",
          "101156.031000",
          "101156.031000",
          "101156.046000",
          "101156.046000",
          "101156.046000",
          "101156.046000",
          "101156.046000",
          "101156.046000",
          "101156.046000",
          "101236.015000",
          "101236.015000",
          "101236.015000",
          "101236.015000",
          "101236.015000",
          "101236.015000",
          "101236.031000",
          "101236.031000",
          "101236.031000",
          "101236.031000",
          "101236.031000",
          "101236.031000",
          "101236.031000",
          "101236.046000",
          "101236.046000",
          "101236.046000",
          "101236.046000",
          "101236.046000",
          "101236.046000",
          "101236.046000",
          "101316.015000",
          "101316.015000",
          "101316.015000",
          "101316.015000",
          "101316.015000",
          "101316.015000",
          "101316.031000",
          "101316.031000",
          "101316.031000",
          "101316.031000",
          "101316.031000",
          "101316.031000",
          "101316.031000",
          "101316.046000",
          "101316.046000",
          "101316.046000",
          "101316.046000",
          "101316.046000",
          "101316.046000",
          "101316.046000",
          "101356.015000",
          "101356.015000",
          "101356.015000",
          "101356.015000",
          "101356.015000",
          "101356.015000",
          "101356.031000",
          "101356.031000",
          "101356.031000",
          "101356.031000",
          "101356.031000",
          "101356.031000",
          "101356.031000",
          "101356.046000",
          "101356.046000",
          "101356.046000",
          "101356.046000",
          "101356.046000",
          "101356.046000",
          "101356.046000",
          "101436.015000",
          "101436.015000",
          "101436.015000",
          "101436.015000",
          "101436.015000",
          "101436.015000",
          "101436.031000",
          "101436.031000",
          "101436.031000",
          "101436.031000",
          "101436.031000",
          "101436.031000",
          "101436.031000",
          "101436.046000",
          "101436.046000",
          "101436.046000",
          "101436.046000",
          "101436.046000",
          "101436.046000",
          "101436.046000",
          "101516.015000",
          "101516.015000",
          "101516.015000",
          "101516.015000",
          "101516.015000",
          "101516.031000",
          "101516.031000",
          "101516.031000",
          "101516.046000",
          "101516.046000",
          "101516.046000",
          "101516.046000",
          "101516.046000",
          "101516.046000",
          "101516.046000",
          "101516.046000",
          "101516.062000",
          "101516.062000",
          "101516.062000",
          "101516.062000",
          "101556.015000",
          "101556.015000",
          "101556.015000",
          "101556.015000",
          "101556.015000",
          "101556.031000",
          "101556.031000",
          "101556.031000",
          "101556.031000",
          "101556.031000",
          "101556.031000",
          "101556.031000",
          "101556.046000",
          "101556.046000",
          "101556.046000",
          "101556.046000",
          "101556.046000",
          "101556.046000",
          "101556.046000",
          "101556.046000",
          "101636.015000",
          "101636.015000",
          "101636.015000",
          "101636.015000",
          "101636.015000",
          "101636.015000",
          "101636.031000",
          "101636.031000",
          "101636.031000",
          "101636.031000",
          "101636.031000",
          "101636.031000",
          "101636.031000",
          "101636.046000",
          "101636.046000",
          "101636.046000",
          "101636.046000",
          "101636.046000",
          "101636.046000",
          "101636.046000",
          "101716.015000",
          "101716.015000",
          "101716.015000",
          "101716.015000",
          "101716.015000",
          "101716.015000",
          "101716.031000",
          "101716.031000",
          "101716.031000",
          "101716.031000",
          "101716.031000",
          "101716.031000",
          "101716.031000",
          "101716.046000",
          "101716.046000",
          "101716.046000",
          "101716.046000",
          "101716.046000",
          "101716.046000",
          "101716.046000",
          "101745.906000",
          "101745.906000",
          "101745.906000",
          "101745.921000",
          "101745.921000",
          "101745.921000",
          "101745.921000",
          "101745.921000",
          "101745.921000",
          "101745.921000",
          "101745.921000",
          "101745.937000",
          "101745.937000",
          "101745.937000",
          "101745.937000"
        ],
        "InstanceCreationTime": [
          "100956.015000",
          "100956.015000",
          "100956.015000",
          "100956.031000",
          "100956.031000",
          "101036.015000",
          "101036.015000",
          "101036.015000",
          "101036.015000",
          "101036.015000",
          "101036.015000",
          "101036.031000",
          "101036.031000",
          "101036.031000",
          "101036.031000",
          "101036.031000",
          "101036.031000",
          "101036.031000",
          "101036.046000",
          "101036.046000",
          "101036.046000",
          "101036.046000",
          "101036.046000",
          "101036.046000",
          "101036.046000",
          "101116.015000",
          "101116.015000",
          "101116.015000",
          "101116.015000",
          "101116.015000",
          "101116.015000",
          "101116.031000",
          "101116.031000",
          "101116.031000",
          "101116.031000",
          "101116.031000",
          "101116.031000",
          "101116.031000",
          "101116.046000",
          "101116.046000",
          "101116.046000",
          "101116.046000",
          "101116.046000",
          "101116.046000",
          "101116.046000",
          "101156.015000",
          "101156.015000",
          "101156.015000",
          "101156.015000",
          "101156.015000",
          "101156.015000",
          "101156.031000",
          "101156.031000",
          "101156.031000",
          "101156.031000",
          "101156.031000",
          "101156.031000",
          "101156.031000",
          "101156.046000",
          "101156.046000",
          "101156.046000",
          "101156.046000",
          "101156.046000",
          "101156.046000",
          "101156.046000",
          "101236.015000",
          "101236.015000",
          "101236.015000",
          "101236.015000",
          "101236.015000",
          "101236.015000",
          "101236.031000",
          "101236.031000",
          "101236.031000",
          "101236.031000",
          "101236.031000",
          "101236.031000",
          "101236.031000",
          "101236.046000",
          "101236.046000",
          "101236.046000",
          "101236.046000",
          "101236.046000",
          "101236.046000",
          "101236.046000",
          "101316.015000",
          "101316.015000",
          "101316.015000",
          "101316.015000",
          "101316.015000",
          "101316.015000",
          "101316.031000",
          "101316.031000",
          "101316.031000",
          "101316.031000",
          "101316.031000",
          "101316.031000",
          "101316.031000",
          "101316.046000",
          "101316.046000",
          "101316.046000",
          "101316.046000",
          "101316.046000",
          "101316.046000",
          "101316.046000",
          "101356.015000",
          "101356.015000",
          "101356.015000",
          "101356.015000",
          "101356.015000",
          "101356.015000",
          "101356.031000",
          "101356.031000",
          "101356.031000",
          "101356.031000",
          "101356.031000",
          "101356.031000",
          "101356.031000",
          "101356.046000",
          "101356.046000",
          "101356.046000",
          "101356.046000",
          "101356.046000",
          "101356.046000",
          "101356.046000",
          "101436.015000",
          "101436.015000",
          "101436.015000",
          "101436.015000",
          "101436.015000",
          "101436.015000",
          "101436.031000",
          "101436.031000",
          "101436.031000",
          "101436.031000",
          "101436.031000",
          "101436.031000",
          "101436.031000",
          "101436.046000",
          "101436.046000",
          "101436.046000",
          "101436.046000",
          "101436.046000",
          "101436.046000",
          "101436.046000",
          "101516.015000",
          "101516.015000",
          "101516.015000",
          "101516.015000",
          "101516.015000",
          "101516.031000",
          "101516.031000",
          "101516.031000",
          "101516.046000",
          "101516.046000",
          "101516.046000",
          "101516.046000",
          "101516.046000",
          "101516.046000",
          "101516.046000",
          "101516.046000",
          "101516.062000",
          "101516.062000",
          "101516.062000",
          "101516.062000",
          "101556.015000",
          "101556.015000",
          "101556.015000",
          "101556.015000",
          "101556.015000",
          "101556.031000",
          "101556.031000",
          "101556.031000",
          "101556.031000",
          "101556.031000",
          "101556.031000",
          "101556.031000",
          "101556.046000",
          "101556.046000",
          "101556.046000",
          "101556.046000",
          "101556.046000",
          "101556.046000",
          "101556.046000",
          "101556.046000",
          "101636.015000",
          "101636.015000",
          "101636.015000",
          "101636.015000",
          "101636.015000",
          "101636.015000",
          "101636.031000",
          "101636.031000",
          "101636.031000",
          "101636.031000",
          "101636.031000",
          "101636.031000",
          "101636.031000",
          "101636.046000",
          "101636.046000",
          "101636.046000",
          "101636.046000",
          "101636.046000",
          "101636.046000",
          "101636.046000",
          "101716.015000",
          "101716.015000",
          "101716.015000",
          "101716.015000",
          "101716.015000",
          "101716.015000",
          "101716.031000",
          "101716.031000",
          "101716.031000",
          "101716.031000",
          "101716.031000",
          "101716.031000",
          "101716.031000",
          "101716.046000",
          "101716.046000",
          "101716.046000",
          "101716.046000",
          "101716.046000",
          "101716.046000",
          "101716.046000",
          "101745.906000",
          "101745.906000",
          "101745.906000",
          "101745.921000",
          "101745.921000",
          "101745.921000",
          "101745.921000",
          "101745.921000",
          "101745.921000",
          "101745.921000",
          "101745.921000",
          "101745.937000",
          "101745.937000",
          "101745.937000",
          "101745.937000"
        ],
        "InstanceNumber": [
          1,
          2,
          3,
          4,
          5,
          6,
          7,
          8,
          9,
          10,
          11,
          12,
          13,
          14,
          15,
          16,
          17,
          18,
          19,
          20,
          21,
          22,
          23,
          24,
          25,
          26,
          27,
          28,
          29,
          30,
          31,
          32,
          33,
          34,
          35,
          36,
          37,
          38,
          39,
          40,
          41,
          42,
          43,
          44,
          45,
          46,
