{
  "aor": 0.0017244583333333333,
  "aqi": 0.04562135958333333,
  "bids_meta": {
    "AcquisitionMatrixPE": 68,
    "AcquisitionNumber": 1,
    "AcquisitionTime": "09:51:35.267500",
    "BandwidthPerPixelPhaseEncode": 31.289,
    "BaseResolution": 68,
    "CogAtlasID": "TODO",
    "CoilString": "C:HEA;HEP",
    "ConversionSoftware": "dcm2niix",
    "ConversionSoftwareVersion": "v1.0.20190902",
    "DerivedVendorReportedEchoSpacing": 0.000470002,
    "DeviceSerialNumber": "35450",
    "DwellTime": 3e-06,
    "EchoTime": 0.023,
    "EffectiveEchoSpacing": 0.000470002,
    "FlipAngle": 76,
    "ImageOrientationPatientDICOM": [
      0.999818,
      0.00206157,
      0.0189735,
      -6.85458e-09,
      0.994149,
      -0.108019
    ],
    "ImageType": [
      "ORIGINAL",
      "PRIMARY",
      "M",
      "ND",
      "MOSAIC"
    ],
    "ImagingFrequency": 123.219,
    "InPlanePhaseEncodingDirectionDICOM": "COL",
    "InstitutionAddress": "Univeristy_Ave._197_Newark_North_East_US_07102-1814",
    "InstitutionName": "RUBIC",
    "InstitutionalDepartmentName": "Department",
    "MRAcquisitionType": "2D",
    "MagneticFieldStrength": 3,
    "Manufacturer": "Siemens",
    "ManufacturersModelName": "TrioTim",
    "Modality": "MR",
    "PartialFourier": 1,
    "PatientPosition": "HFS",
    "PercentPhaseFOV": 100,
    "PhaseEncodingDirection": "j-",
    "PhaseEncodingSteps": 68,
    "PhaseResolution": 1,
    "PixelBandwidth": 2451,
    "ProcedureStepDescription": "Krekelberg_David",
    "ProtocolName": "ep2d_bold_RestEPI_2",
    "PulseSequenceDetails": "%SiemensSeq%_ep2d_bold",
    "ReceiveCoilName": "HeadMatrix",
    "ReconMatrixPE": 68,
    "RepetitionTime": 2,
    "SAR": 0.16602,
    "ScanOptions": "FS",
    "ScanningSequence": "EP",
    "SequenceName": "_epfid2d1_68",
    "SequenceVariant": "SK",
    "SeriesDescription": "ep2d_bold_RestEPI_2",
    "SeriesNumber": 8,
    "ShimSetting": [
      2059,
      -624,
      -8028,
      906,
      372,
      170,
      -1519,
      -340
    ],
    "SliceThickness": 2.5,
    "SliceTiming": [
      1.9525,
      1.8975,
      1.84,
      1.785,
      1.73,
      1.6725,
      1.6175,
      1.5625,
      1.5075,
      1.45,
      1.395,
      1.34,
      1.2825,
      1.2275,
      1.1725,
      1.115,
      1.06,
      1.005,
      0.9475,
      0.8925,
      0.8375,
      0.7825,
      0.725,
      0.67,
      0.615,
      0.5575,
      0.5025,
      0.4475,
      0.39,
      0.335,
      0.28,
      0.225,
      0.1675,
      0.1125,
      0.0575,
      0
    ],
    "SoftwareVersions": "syngo_MR_B19",
    "SpacingBetweenSlices": 3,
    "StationName": "MRC35450",
    "TaskName": "rest",
    "TotalReadoutTime": 0.0314901,
    "TxRefAmp": 325.464,
    "dataset": "<unset>",
    "dcmmeta_affine": [
      [
        -2.999453544616699,
        -2.0563749814073162e-08,
        0.05725546181201935,
        96.95831298828125
      ],
      [
        -0.006184699945151806,
        2.9824464321136475,
        -0.3239980638027191,
        -70.84557342529297
      ],
      [
        0.05692044645547867,
        0.32405710220336914,
        2.981903314590454,
        -65.49089813232422
      ],
      [
        0.0,
        0.0,
        0.0,
        1.0
      ]
    ],
    "dcmmeta_reorient_transform": [
      [
        0.0,
        -1.0,
        0.0,
        67.0
      ],
      [
        1.0,
        0.0,
        0.0,
        0.0
      ],
      [
        0.0,
        0.0,
        1.0,
        0.0
      ],
      [
        0.0,
        0.0,
        0.0,
        1.0
      ]
    ],
    "dcmmeta_shape": [
      68,
      68,
      36,
      240
    ],
    "dcmmeta_slice_dim": 2,
    "dcmmeta_version": 0.6,
    "global": {
      "const": {
        "AcquisitionMatrix": [
          68,
          0,
          0,
          68
        ],
        "AngioFlag": "N",
        "BitsAllocated": 16,
        "BitsStored": 12,
        "Columns": 408,
        "EchoNumbers": 1,
        "EchoTime": 23.0,
        "EchoTrainLength": 1,
        "FlipAngle": 76.0,
        "HighBit": 11,
        "ImageOrientationPatient": [
          0.99981786186417,
          0.00206156666259,
          0.01897348255472,
          -6.854583e-09,
          0.99414882621586,
          -0.108019032275
        ],
        "ImagePositionPatient": [
          -606.86541878351,
          -637.04564195712,
          1.6341553900114
        ],
        "ImageType": [
          "ORIGINAL",
          "PRIMARY",
          "M",
          "ND",
          "MOSAIC"
        ],
        "ImagedNucleus": "1H",
        "ImagingFrequency": 123.218725,
        "InPlanePhaseEncodingDirection": "COL",
        "MRAcquisitionType": "2D",
        "MagneticFieldStrength": 3.0,
        "Manufacturer": "SIEMENS",
        "ManufacturerModelName": "TrioTim",
        "Modality": "MR",
        "NumberOfAverages": 1.0,
        "NumberOfPhaseEncodingSteps": 68,
        "PercentPhaseFieldOfView": 100.0,
        "PercentSampling": 100.0,
        "PerformedProcedureStepStartTime": "090350.328000",
        "PhotometricInterpretation": "MONOCHROME2",
        "PixelBandwidth": 2451.0,
        "PixelRepresentation": 0,
        "PixelSpacing": [
          3.0,
          3.0
        ],
        "ProtocolName": "ep2d_bold_RestEPI_2",
        "RepetitionTime": 2000.0,
        "Rows": 408,
        "SAR": 0.1660200447023,
        "SamplesPerPixel": 1,
        "ScanOptions": "FS",
        "ScanningSequence": "EP",
        "SequenceName": "*epfid2d1_68",
        "SequenceVariant": "SK",
        "SeriesDescription": "ep2d_bold_RestEPI_2",
        "SeriesNumber": 8,
        "SeriesTime": "095216.781000",
        "SliceLocation": -55.594102550827,
        "SliceThickness": 2.5,
        "SmallestImagePixelValue": 0,
        "SoftwareVersions": "syngo MR B19",
        "SpacingBetweenSlices": 3.000000029265,
        "SpecificCharacterSet": "ISO_IR 100",
        "StudyID": "1",
        "StudyTime": "090350.218000",
        "TransmitCoilName": "Body",
        "VariableFlipAngleFlag": "N",
        "WindowCenterWidthExplanation": "Algo1",
        "dBdt": 0.0
      },
      "slices": {}
    },
    "modality": "bold",
    "run_id": 2,
    "subject_id": "235",
    "task_id": "rest",
    "time": {
      "samples": {
        "AcquisitionNumber": [
          1,
          2,
          3,
          4,
          5,
          6,
          7,
          8,
          9,
          10,
          11,
          12,
          13,
          14,
          15,
          16,
          17,
          18,
          19,
          20,
          21,
          22,
          23,
          24,
          25,
          26,
          27,
          28,
          29,
          30,
          31,
          32,
          33,
          34,
          35,
          36,
          37,
          38,
          39,
          40,
          41,
          42,
          43,
          44,
          45,
          46,
          47,
          48,
          49,
          50,
          51,
          52,
          53,
          54,
          55,
          56,
          57,
          58,
          59,
          60,
          61,
          62,
          63,
          64,
          65,
          66,
          67,
          68,
          69,
          70,
          71,
          72,
          73,
          74,
          75,
          76,
          77,
          78,
          79,
          80,
          81,
          82,
          83,
          84,
          85,
          86,
          87,
          88,
          89,
          90,
          91,
          92,
          93,
          94,
          95,
          96,
          97,
          98,
          99,
          100,
          101,
          102,
          103,
          104,
          105,
          106,
          107,
          108,
          109,
          110,
          111,
          112,
          113,
          114,
          115,
          116,
          117,
          118,
          119,
          120,
          121,
          122,
          123,
          124,
          125,
          126,
          127,
          128,
          129,
          130,
          131,
          132,
          133,
          134,
          135,
          136,
          137,
          138,
          139,
          140,
          141,
          142,
          143,
          144,
          145,
          146,
          147,
          148,
          149,
          150,
          151,
          152,
          153,
          154,
          155,
          156,
          157,
          158,
          159,
          160,
          161,
          162,
          163,
          164,
          165,
          166,
          167,
          168,
          169,
          170,
          171,
          172,
          173,
          174,
          175,
          176,
          177,
          178,
          179,
          180,
          181,
          182,
          183,
          184,
          185,
          186,
          187,
          188,
          189,
          190,
          191,
          192,
          193,
          194,
          195,
          196,
          197,
          198,
          199,
          200,
          201,
          202,
          203,
          204,
          205,
          206,
          207,
          208,
          209,
          210,
          211,
          212,
          213,
          214,
          215,
          216,
          217,
          218,
          219,
          220,
          221,
          222,
          223,
          224,
          225,
          226,
          227,
          228,
          229,
          230,
          231,
          232,
          233,
          234,
          235,
          236,
          237,
          238,
          239,
          240
        ],
        "AcquisitionTime": [
          "095135.267500",
          "095137.275000",
          "095139.282500",
          "095141.292500",
          "095143.300000",
          "095145.307500",
          "095147.315000",
          "095149.322500",
          "095151.332500",
          "095153.340000",
          "095155.347500",
          "095157.355000",
          "095159.365000",
          "095201.372500",
          "095203.380000",
          "095205.387500",
          "095207.395000",
          "095209.405000",
          "095211.412500",
          "095213.420000",
          "095215.427500",
          "095217.435000",
          "095219.445000",
          "095221.452500",
          "095223.460000",
          "095225.467500",
          "095227.477500",
          "095229.485000",
          "095231.492500",
          "095233.500000",
          "095235.507500",
          "095237.517500",
          "095239.525000",
          "095241.532500",
          "095243.540000",
          "095245.547500",
          "095247.557500",
          "095249.565000",
          "095251.572500",
          "095253.580000",
          "095255.587500",
          "095257.597500",
          "095259.605000",
          "095301.612500",
          "095303.620000",
          "095305.630000",
          "095307.637500",
          "095309.645000",
          "095311.652500",
          "095313.660000",
          "095315.670000",
          "095317.677500",
          "095319.685000",
          "095321.692500",
          "095323.700000",
          "095325.710000",
          "095327.717500",
          "095329.725000",
          "095331.732500",
          "095333.742500",
          "095335.750000",
          "095337.757500",
          "095339.765000",
          "095341.772500",
          "095343.782500",
          "095345.790000",
          "095347.797500",
          "095349.805000",
          "095351.812500",
          "095353.822500",
          "095355.830000",
          "095357.837500",
          "095359.845000",
          "095401.855000",
          "095403.862500",
          "095405.870000",
          "095407.877500",
          "095409.885000",
          "095411.895000",
          "095413.902500",
          "095415.910000",
          "095417.917500",
          "095419.925000",
          "095421.935000",
          "095423.942500",
          "095425.950000",
          "095427.957500",
          "095429.965000",
          "095431.975000",
          "095433.982500",
          "095435.990000",
          "095437.997500",
          "095440.007500",
          "095442.015000",
          "095444.022500",
          "095446.030000",
          "095448.037500",
          "095450.047500",
          "095452.055000",
          "095454.062500",
          "095456.070000",
          "095458.077500",
          "095500.087500",
          "095502.095000",
          "095504.102500",
          "095506.110000",
          "095508.120000",
          "095510.127500",
          "095512.135000",
          "095514.142500",
          "095516.150000",
          "095518.160000",
          "095520.167500",
          "095522.175000",
          "095524.182500",
          "095526.190000",
          "095528.200000",
          "095530.207500",
          "095532.215000",
          "095534.222500",
          "095536.232500",
          "095538.240000",
          "095540.247500",
          "095542.255000",
          "095544.262500",
          "095546.272500",
          "095548.280000",
          "095550.287500",
          "095552.295000",
          "095554.302500",
          "095556.312500",
          "095558.320000",
          "095600.327500",
          "095602.335000",
          "095604.342500",
          "095606.352500",
          "095608.360000",
          "095610.367500",
          "095612.375000",
          "095614.385000",
          "095616.392500",
          "095618.400000",
          "095620.407500",
          "095622.415000",
          "095624.425000",
          "095626.432500",
          "095628.440000",
          "095630.447500",
          "095632.455000",
          "095634.465000",
          "095636.472500",
          "095638.480000",
          "095640.487500",
          "095642.497500",
          "095644.505000",
          "095646.512500",
          "095648.520000",
          "095650.527500",
          "095652.537500",
          "095654.545000",
          "095656.552500",
          "095658.560000",
          "095700.567500",
          "095702.577500",
          "095704.585000",
          "095706.592500",
          "095708.600000",
          "095710.610000",
          "095712.617500",
          "095714.625000",
          "095716.632500",
          "095718.640000",
          "095720.650000",
          "095722.657500",
          "095724.665000",
          "095726.672500",
          "095728.680000",
          "095730.690000",
          "095732.697500",
          "095734.705000",
          "095736.712500",
          "095738.722500",
          "095740.730000",
          "095742.737500",
          "095744.745000",
          "095746.752500",
          "095748.762500",
          "095750.770000",
          "095752.777500",
          "095754.785000",
          "095756.792500",
          "095758.802500",
          "095800.810000",
          "095802.817500",
          "095804.825000",
          "095806.832500",
          "095808.842500",
          "095810.850000",
          "095812.857500",
          "095814.865000",
          "095816.875000",
          "095818.882500",
          "095820.890000",
          "095822.897500",
          "095824.905000",
          "095826.915000",
          "095828.922500",
          "095830.930000",
          "095832.937500",
          "095834.945000",
          "095836.955000",
          "095838.962500",
          "095840.970000",
          "095842.977500",
          "095844.987500",
          "095846.995000",
          "095849.002500",
          "095851.010000",
          "095853.017500",
          "095855.027500",
          "095857.035000",
          "095859.042500",
          "095901.050000",
          "095903.057500",
          "095905.067500",
          "095907.075000",
          "095909.082500",
          "095911.090000",
          "095913.100000",
          "095915.107500",
          "095917.115000",
          "095919.122500",
          "095921.130000",
          "095923.140000",
          "095925.147500",
          "095927.155000",
          "095929.162500",
          "095931.170000",
          "095933.180000",
          "095935.187500"
        ],
        "ContentTime": [
          "095216.781000",
          "095216.781000",
          "095216.781000",
          "095216.796000",
          "095216.796000",
          "095216.796000",
          "095216.796000",
          "095216.796000",
          "095216.796000",
          "095216.812000",
          "095216.812000",
          "095216.812000",
          "095216.812000",
          "095216.812000",
          "095216.812000",
          "095216.812000",
          "095216.812000",
          "095216.828000",
          "095216.828000",
          "095216.828000",
          "095256.781000",
          "095256.781000",
          "095256.781000",
          "095256.781000",
          "095256.781000",
          "095256.796000",
          "095256.796000",
          "095256.796000",
          "095256.796000",
          "095256.796000",
          "095256.796000",
          "095256.796000",
          "095256.796000",
          "095256.812000",
          "095256.812000",
          "095256.812000",
          "095256.812000",
          "095256.812000",
          "095256.812000",
          "095256.812000",
          "095336.781000",
          "095336.781000",
          "095336.781000",
          "095336.781000",
          "095336.781000",
          "095336.781000",
          "095336.796000",
          "095336.796000",
          "095336.796000",
          "095336.796000",
          "095336.796000",
          "095336.796000",
          "095336.796000",
          "095336.812000",
          "095336.812000",
          "095336.812000",
          "095336.812000",
          "095336.812000",
          "095336.812000",
          "095336.812000",
          "095416.781000",
          "095416.781000",
          "095416.781000",
          "095416.781000",
          "095416.781000",
          "095416.796000",
          "095416.796000",
          "095416.796000",
          "095416.796000",
          "095416.796000",
          "095416.796000",
          "095416.796000",
          "095416.796000",
          "095416.812000",
          "095416.812000",
          "095416.812000",
          "095416.812000",
          "095416.812000",
          "095416.812000",
          "095416.812000",
          "095456.781000",
          "095456.781000",
          "095456.781000",
          "095456.781000",
          "095456.781000",
          "095456.796000",
          "095456.796000",
          "095456.796000",
          "095456.796000",
          "095456.796000",
          "095456.796000",
          "095456.796000",
          "095456.796000",
          "095456.812000",
          "095456.812000",
          "095456.812000",
          "095456.812000",
          "095456.812000",
          "095456.812000",
          "095456.828000",
          "095536.781000",
          "095536.781000",
          "095536.781000",
          "095536.781000",
          "095536.781000",
          "095536.796000",
          "095536.796000",
          "095536.796000",
          "095536.796000",
          "095536.796000",
          "095536.796000",
          "095536.796000",
          "095536.796000",
          "095536.812000",
          "095536.812000",
          "095536.812000",
          "095536.812000",
          "095536.812000",
          "095536.812000",
          "095536.828000",
          "095616.781000",
          "095616.781000",
          "095616.781000",
          "095616.781000",
          "095616.781000",
          "095616.796000",
          "095616.796000",
          "095616.796000",
          "095616.796000",
          "095616.796000",
          "095616.796000",
          "095616.812000",
          "095616.812000",
          "095616.812000",
          "095616.812000",
          "095616.812000",
          "095616.812000",
          "095616.812000",
          "095616.828000",
          "095616.828000",
          "095656.781000",
          "095656.781000",
          "095656.781000",
          "095656.781000",
          "095656.781000",
          "095656.796000",
          "095656.796000",
          "095656.796000",
          "095656.796000",
          "095656.796000",
          "095656.796000",
          "095656.812000",
          "095656.812000",
          "095656.812000",
          "095656.812000",
          "095656.812000",
          "095656.812000",
          "095656.812000",
          "095656.812000",
          "095656.828000",
          "095736.781000",
          "095736.781000",
          "095736.781000",
          "095736.781000",
          "095736.781000",
          "095736.781000",
          "095736.796000",
          "095736.796000",
          "095736.796000",
          "095736.796000",
          "095736.796000",
          "095736.796000",
          "095736.796000",
          "095736.812000",
          "095736.812000",
          "095736.812000",
          "095736.812000",
          "095736.812000",
          "095736.812000",
          "095736.812000",
          "095816.781000",
          "095816.781000",
          "095816.781000",
          "095816.781000",
          "095816.781000",
          "095816.796000",
          "095816.796000",
          "095816.796000",
          "095816.796000",
          "095816.796000",
          "095816.796000",
          "095816.796000",
          "095816.812000",
          "095816.812000",
          "095816.812000",
          "095816.812000",
          "095816.812000",
          "095816.812000",
          "095816.812000",
          "095816.828000",
          "095856.781000",
          "095856.781000",
          "095856.781000",
          "095856.781000",
          "095856.781000",
          "095856.796000",
          "095856.796000",
          "095856.796000",
          "095856.796000",
          "095856.796000",
          "095856.796000",
          "095856.796000",
          "095856.812000",
          "095856.812000",
          "095856.812000",
          "095856.812000",
          "095856.812000",
          "095856.812000",
          "095856.812000",
          "095856.828000",
          "095934.968000",
          "095934.984000",
          "095934.984000",
          "095934.984000",
          "095934.984000",
          "095934.984000",
          "095934.984000",
          "095934.984000",
          "095935.000000",
          "095935.000000",
          "095935.000000",
          "095935.000000",
          "095935.000000",
          "095935.000000",
          "095935.000000",
          "095935.015000",
          "095935.015000",
          "095935.015000",
          "095935.015000",
          "095935.031000"
        ],
        "InstanceCreationTime": [
          "095216.781000",
          "095216.781000",
          "095216.781000",
          "095216.796000",
          "095216.796000",
          "095216.796000",
          "095216.796000",
          "095216.796000",
          "095216.796000",
          "095216.812000",
          "095216.812000",
          "095216.812000",
          "095216.812000",
          "095216.812000",
          "095216.812000",
          "095216.812000",
          "095216.812000",
          "095216.828000",
          "095216.828000",
          "095216.828000",
          "095256.781000",
          "095256.781000",
          "095256.781000",
          "095256.781000",
          "095256.781000",
          "095256.796000",
          "095256.796000",
          "095256.796000",
          "095256.796000",
          "095256.796000",
          "095256.796000",
          "095256.796000",
          "095256.796000",
          "095256.812000",
          "095256.812000",
          "095256.812000",
          "095256.812000",
          "095256.812000",
          "095256.812000",
          "095256.812000",
          "095336.781000",
          "095336.781000",
          "095336.781000",
          "095336.781000",
          "095336.781000",
          "095336.781000",
          "095336.796000",
          "095336.796000",
          "095336.796000",
          "095336.796000",
          "095336.796000",
          "095336.796000",
          "095336.796000",
          "095336.812000",
          "095336.812000",
          "095336.812000",
          "095336.812000",
          "095336.812000",
          "095336.812000",
          "095336.812000",
          "095416.781000",
          "095416.781000",
          "095416.781000",
          "095416.781000",
          "095416.781000",
          "095416.796000",
          "095416.796000",
          "095416.796000",
          "095416.796000",
          "095416.796000",
          "095416.796000",
          "095416.796000",
          "095416.796000",
          "095416.812000",
          "095416.812000",
          "095416.812000",
          "095416.812000",
          "095416.812000",
          "095416.812000",
          "095416.812000",
          "095456.781000",
          "095456.781000",
          "095456.781000",
          "095456.781000",
          "095456.781000",
          "095456.796000",
          "095456.796000",
          "095456.796000",
          "095456.796000",
          "095456.796000",
          "095456.796000",
          "095456.796000",
          "095456.796000",
          "095456.812000",
          "095456.812000",
          "095456.812000",
          "095456.812000",
          "095456.812000",
          "095456.812000",
          "095456.828000",
          "095536.781000",
          "095536.781000",
          "095536.781000",
          "095536.781000",
          "095536.781000",
          "095536.796000",
          "095536.796000",
          "095536.796000",
          "095536.796000",
          "095536.796000",
          "095536.796000",
          "095536.796000",
          "095536.796000",
          "095536.812000",
          "095536.812000",
          "095536.812000",
          "095536.812000",
          "095536.812000",
          "095536.812000",
          "095536.828000",
          "095616.781000",
          "095616.781000",
          "095616.781000",
          "095616.781000",
          "095616.781000",
          "095616.796000",
          "095616.796000",
          "095616.796000",
          "095616.796000",
          "095616.796000",
          "095616.796000",
          "095616.812000",
          "095616.812000",
          "095616.812000",
          "095616.812000",
          "095616.812000",
          "095616.812000",
          "095616.812000",
          "095616.828000",
          "095616.828000",
          "095656.781000",
          "095656.781000",
          "095656.781000",
          "095656.781000",
          "095656.781000",
          "095656.796000",
          "095656.796000",
          "095656.796000",
          "095656.796000",
          "095656.796000",
          "095656.796000",
          "095656.812000",
          "095656.812000",
          "095656.812000",
          "095656.812000",
          "095656.812000",
          "095656.812000",
          "095656.812000",
          "095656.812000",
          "095656.828000",
          "095736.781000",
          "095736.781000",
          "095736.781000",
          "095736.781000",
          "095736.781000",
          "095736.781000",
          "095736.796000",
          "095736.796000",
          "095736.796000",
          "095736.796000",
          "095736.796000",
          "095736.796000",
          "095736.796000",
          "095736.812000",
          "095736.812000",
          "095736.812000",
          "095736.812000",
          "095736.812000",
          "095736.812000",
          "095736.812000",
          "095816.781000",
          "095816.781000",
          "095816.781000",
          "095816.781000",
          "095816.781000",
          "095816.796000",
          "095816.796000",
          "095816.796000",
          "095816.796000",
          "095816.796000",
          "095816.796000",
          "095816.796000",
          "095816.812000",
          "095816.812000",
          "095816.812000",
          "095816.812000",
          "095816.812000",
          "095816.812000",
          "095816.812000",
          "095816.828000",
          "095856.781000",
          "095856.781000",
          "095856.781000",
          "095856.781000",
          "095856.781000",
          "095856.796000",
          "095856.796000",
          "095856.796000",
          "095856.796000",
          "095856.796000",
          "095856.796000",
          "095856.796000",
          "095856.812000",
          "095856.812000",
          "095856.812000",
          "095856.812000",
          "095856.812000",
          "095856.812000",
          "095856.812000",
          "095856.828000",
          "095934.968000",
          "095934.984000",
          "095934.984000",
          "095934.984000",
          "095934.984000",
          "095934.984000",
          "095934.984000",
          "095934.984000",
          "095935.000000",
          "095935.000000",
          "095935.000000",
          "095935.000000",
          "095935.000000",
          "095935.000000",
          "095935.000000",
          "095935.015000",
          "095935.015000",
          "095935.015000",
          "095935.015000",
          "095935.031000"
        ],
        "InstanceNumber": [
          1,
          2,
          3,
          4,
          5,
          6,
          7,
          8,
          9,
          10,
          11,
          12,
          13,
          14,
          15,
          16,
          17,
          18,
          19,
          20,
          21,
          22,
          23,
          24,
          25,
          26,
          27,
          28,
          29,
          30,
          31,
          32,
          33,
          34,
          35,
          36,
          37,
          38,
          39,
          40,
          41,
          42,
          43,
          44,
          45,
          46,
