{
  "AcquisitionMatrixPE": 68,
  "AcquisitionNumber": 1,
  "AcquisitionTime": "11:56:47.050000",
  "BandwidthPerPixelPhaseEncode": 31.289,
  "BaseResolution": 68,
  "CoilString": "C:HEA;HEP",
  "ConversionSoftware": "dcm2niix",
  "ConversionSoftwareVersion": "v1.0.20190902",
  "DerivedVendorReportedEchoSpacing": 0.000470002,
  "DeviceSerialNumber": "35450",
  "DwellTime": 3e-06,
  "EchoTime": 0.023,
  "EffectiveEchoSpacing": 0.000470002,
  "FlipAngle": 76,
  "ImageOrientationPatientDICOM": [0.999657, 0.00314478, 0.0259874, 3.2883e-08, 0.992757, -0.120137],
  "ImageType": [
    "ORIGINAL",
    "PRIMARY",
    "M",
    "ND",
    "MOSAIC"
],
  "ImagingFrequency": 123.218,
  "InPlanePhaseEncodingDirectionDICOM": "COL",
  "InstitutionAddress": "Univeristy_Ave._197_Newark_North_East_US_07102-1814",
  "InstitutionName": "RUBIC",
  "InstitutionalDepartmentName": "Department",
  "MRAcquisitionType": "2D",
  "MagneticFieldStrength": 3,
  "Manufacturer": "Siemens",
  "ManufacturersModelName": "TrioTim",
  "Modality": "MR",
  "PartialFourier": 1,
  "PatientPosition": "HFS",
  "PercentPhaseFOV": 100,
  "PhaseEncodingDirection": "j-",
  "PhaseEncodingSteps": 68,
  "PhaseResolution": 1,
  "PixelBandwidth": 2451,
  "ProcedureStepDescription": "Krekelberg_David",
  "ProtocolName": "ep2d_bold_RestEPI_1",
  "PulseSequenceDetails": "%SiemensSeq%_ep2d_bold",
  "ReceiveCoilName": "HeadMatrix",
  "ReconMatrixPE": 68,
  "RepetitionTime": 2,
  "SAR": 0.190741,
  "ScanOptions": "FS",
  "ScanningSequence": "EP",
  "SequenceName": "_epfid2d1_68",
  "SequenceVariant": "SK",
  "SeriesDescription": "ep2d_bold_RestEPI_1",
  "SeriesNumber": 6,
  "ShimSetting": [1964, -641, -7571, 669, 57, 15, 77, -203],
  "SliceThickness": 2.5,
  "SliceTiming": [1.95, 1.895, 1.84, 1.7825, 1.7275, 1.6725, 1.615, 1.56, 1.505, 1.45, 1.3925, 1.3375, 1.2825, 1.225, 1.17, 1.115, 1.0575, 1.0025, 0.9475, 0.89, 0.835, 0.78, 0.725, 0.6675, 0.6125, 0.5575, 0.5, 0.445, 0.39, 0.3325, 0.2775, 0.2225, 0.1675, 0.11, 0.055, 0],
  "SoftwareVersions": "syngo_MR_B19",
  "SpacingBetweenSlices": 3,
  "StationName": "MRC35450",
  "TaskName": "rest",
  "TotalReadoutTime": 0.0314901,
  "TxRefAmp": 354.672,
  "dcmmeta_affine": [
    [-2.998971939086914, 9.864903205425435e-08, 0.07853084057569504, 97.87889099121094],
    [-0.009434349834918976, 2.978271961212158, -0.36028704047203064, -68.6148681640625],
    [0.07796207815408707, 0.36041054129600525, 2.9772515296936035, -63.93480682373047],
    [0.0, 0.0, 0.0, 1.0]
],
  "dcmmeta_reorient_transform": [
    [0.0, -1.0, 0.0, 67.0],
    [1.0, 0.0, 0.0, 0.0],
    [0.0, 0.0, 1.0, 0.0],
    [0.0, 0.0, 0.0, 1.0]
],
  "dcmmeta_shape": [68, 68, 36, 240],
  "dcmmeta_slice_dim": 2,
  "dcmmeta_version": 0.6,
  "global": {
    "const": {
      "AcquisitionMatrix": [68, 0, 0, 68],
      "AngioFlag": "N",
      "BitsAllocated": 16,
      "BitsStored": 12,
      "Columns": 408,
      "EchoNumbers": 1,
      "EchoTime": 23.0,
      "EchoTrainLength": 1,
      "FlipAngle": 76.0,
      "HighBit": 11,
      "ImageOrientationPatient": [0.99965732500203, 0.00314478323318, 0.02598736054692, 3.2883011e-08, 0.99275734115154, -0.1201368452629],
      "ImagePositionPatient": [-607.70414856474, -638.83943975358, 8.2289359401263],
      "ImageType": [
        "ORIGINAL",
        "PRIMARY",
        "M",
        "ND",
        "MOSAIC"
],
      "ImagedNucleus": "1H",
      "ImagingFrequency": 123.218476,
      "InPlanePhaseEncodingDirection": "COL",
      "MRAcquisitionType": "2D",
      "MagneticFieldStrength": 3.0,
      "Manufacturer": "SIEMENS",
      "ManufacturerModelName": "TrioTim",
      "Modality": "MR",
      "NumberOfAverages": 1.0,
      "NumberOfPhaseEncodingSteps": 68,
      "PercentPhaseFieldOfView": 100.0,
      "PercentSampling": 100.0,
      "PerformedProcedureStepStartTime": "113054.359000",
      "PhotometricInterpretation": "MONOCHROME2",
      "PixelBandwidth": 2451.0,
      "PixelRepresentation": 0,
      "PixelSpacing": [3.0, 3.0],
      "ProtocolName": "ep2d_bold_RestEPI_1",
      "RepetitionTime": 2000.0,
      "Rows": 408,
      "SAR": 0.19074052894558,
      "SamplesPerPixel": 1,
      "ScanOptions": "FS",
      "ScanningSequence": "EP",
      "SequenceName": "*epfid2d1_68",
      "SequenceVariant": "SK",
      "SeriesDescription": "ep2d_bold_RestEPI_1",
      "SeriesNumber": 6,
      "SeriesTime": "115728.500000",
      "SliceLocation": -52.647479188402,
      "SliceThickness": 2.5,
      "SmallestImagePixelValue": 0,
      "SoftwareVersions": "syngo MR B19",
      "SpacingBetweenSlices": 2.9999999914125,
      "SpecificCharacterSet": "ISO_IR 100",
      "StudyID": "1",
      "StudyTime": "113054.312000",
      "TransmitCoilName": "Body",
      "VariableFlipAngleFlag": "N",
      "WindowCenterWidthExplanation": "Algo1",
      "dBdt": 0.0},
    "slices": {}
  },
  "time": {
    "samples": {
      "AcquisitionNumber": [1, 2, 3, 4, 5, 6, 7, 8, 9, 10, 11, 12, 13, 14, 15, 16, 17, 18, 19, 20, 21, 22, 23, 24, 25, 26, 27, 28, 29, 30, 31, 32, 33, 34, 35, 36, 37, 38, 39, 40, 41, 42, 43, 44, 45, 46, 47, 48, 49, 50, 51, 52, 53, 54, 55, 56, 57, 58, 59, 60, 61, 62, 63, 64, 65, 66, 67, 68, 69, 70, 71, 72, 73, 74, 75, 76, 77, 78, 79, 80, 81, 82, 83, 84, 85, 86, 87, 88, 89, 90, 91, 92, 93, 94, 95, 96, 97, 98, 99, 100, 101, 102, 103, 104, 105, 106, 107, 108, 109, 110, 111, 112, 113, 114, 115, 116, 117, 118, 119, 120, 121, 122, 123, 124, 125, 126, 127, 128, 129, 130, 131, 132, 133, 134, 135, 136, 137, 138, 139, 140, 141, 142, 143, 144, 145, 146, 147, 148, 149, 150, 151, 152, 153, 154, 155, 156, 157, 158, 159, 160, 161, 162, 163, 164, 165, 166, 167, 168, 169, 170, 171, 172, 173, 174, 175, 176, 177, 178, 179, 180, 181, 182, 183, 184, 185, 186, 187, 188, 189, 190, 191, 192, 193, 194, 195, 196, 197, 198, 199, 200, 201, 202, 203, 204, 205, 206, 207, 208, 209, 210, 211, 212, 213, 214, 215, 216, 217, 218, 219, 220, 221, 222, 223, 224, 225, 226, 227, 228, 229, 230, 231, 232, 233, 234, 235, 236, 237, 238, 239, 240],
      "AcquisitionTime": ["115647.050000", "115649.060000", "115651.067500", "115653.075000", "115655.082500", "115657.090000", "115659.100000", "115701.107500", "115703.115000", "115705.122500", "115707.130000", "115709.140000", "115711.147500", "115713.155000", "115715.162500", "115717.170000", "115719.180000", "115721.187500", "115723.195000", "115725.202500", "115727.212500", "115729.220000", "115731.227500", "115733.235000", "115735.242500", "115737.252500", "115739.260000", "115741.267500", "115743.275000", "115745.282500", "115747.292500", "115749.300000", "115751.307500", "115753.315000", "115755.325000", "115757.332500", "115759.340000", "115801.347500", "115803.355000", "115805.365000", "115807.372500", "115809.380000", "115811.387500", "115813.395000", "115815.405000", "115817.412500", "115819.420000", "115821.427500", "115823.437500", "115825.445000", "115827.452500", "115829.460000", "115831.467500", "115833.477500", "115835.485000", "115837.492500", "115839.500000", "115841.507500", "115843.517500", "115845.525000", "115847.532500", "115849.540000", "115851.547500", "115853.557500", "115855.565000", "115857.572500", "115859.580000", "115901.590000", "115903.597500", "115905.605000", "115907.612500", "115909.620000", "115911.630000", "115913.637500", "115915.645000", "115917.652500", "115919.660000", "115921.670000", "115923.677500", "115925.685000", "115927.692500", "115929.702500", "115931.710000", "115933.717500", "115935.725000", "115937.732500", "115939.742500", "115941.750000", "115943.757500", "115945.765000", "115947.772500", "115949.782500", "115951.790000", "115953.797500", "115955.805000", "115957.815000", "115959.822500", "120001.830000", "120003.837500", "120005.845000", "120007.855000", "120009.862500", "120011.870000", "120013.877500", "120015.885000", "120017.895000", "120019.902500", "120021.910000", "120023.917500", "120025.925000", "120027.935000", "120029.942500", "120031.950000", "120033.957500", "120035.967500", "120037.975000", "120039.982500", "120041.990000", "120043.997500", "120046.007500", "120048.015000", "120050.022500", "120052.030000", "120054.037500", "120056.047500", "120058.055000", "120100.062500", "120102.070000", "120104.080000", "120106.087500", "120108.095000", "120110.102500", "120112.110000", "120114.120000", "120116.127500", "120118.135000", "120120.142500", "120122.150000", "120124.160000", "120126.167500", "120128.175000", "120130.182500", "120132.192500", "120134.200000", "120136.207500", "120138.215000", "120140.222500", "120142.232500", "120144.240000", "120146.247500", "120148.255000", "120150.262500", "120152.272500", "120154.280000", "120156.287500", "120158.295000", "120200.305000", "120202.312500", "120204.320000", "120206.327500", "120208.335000", "120210.345000", "120212.352500", "120214.360000", "120216.367500", "120218.375000", "120220.385000", "120222.392500", "120224.400000", "120226.407500", "120228.415000", "120230.425000", "120232.432500", "120234.440000", "120236.447500", "120238.457500", "120240.465000", "120242.472500", "120244.480000", "120246.487500", "120248.497500", "120250.505000", "120252.512500", "120254.520000", "120256.527500", "120258.537500", "120300.545000", "120302.552500", "120304.560000", "120306.570000", "120308.577500", "120310.585000", "120312.592500", "120314.600000", "120316.610000", "120318.617500", "120320.625000", "120322.632500", "120324.640000", "120326.650000", "120328.657500", "120330.665000", "120332.672500", "120334.682500", "120336.690000", "120338.697500", "120340.705000", "120342.712500", "120344.722500", "120346.730000", "120348.737500", "120350.745000", "120352.752500", "120354.762500", "120356.770000", "120358.777500", "120400.785000", "120402.792500", "120404.802500", "120406.810000", "120408.817500", "120410.825000", "120412.835000", "120414.842500", "120416.850000", "120418.857500", "120420.865000", "120422.875000", "120424.882500", "120426.890000", "120428.897500", "120430.905000", "120432.915000", "120434.922500", "120436.930000", "120438.937500", "120440.947500", "120442.955000", "120444.962500", "120446.970000"],
      "ContentTime": ["115728.500000", "115728.500000", "115728.500000", "115728.500000", "115728.500000", "115728.515000", "115728.515000", "115728.515000", "115728.515000", "115728.515000", "115728.515000", "115728.515000", "115728.515000", "115728.531000", "115728.531000", "115728.531000", "115728.531000", "115728.531000", "115728.531000", "115728.531000", "115728.531000", "115808.500000", "115808.500000", "115808.500000", "115808.500000", "115808.500000", "115808.500000", "115808.500000", "115808.500000", "115808.515000", "115808.515000", "115808.515000", "115808.515000", "115808.515000", "115808.515000", "115808.515000", "115808.515000", "115808.531000", "115808.531000", "115808.531000", "115808.531000", "115848.500000", "115848.500000", "115848.500000", "115848.500000", "115848.500000", "115848.500000", "115848.500000", "115848.500000", "115848.515000", "115848.515000", "115848.515000", "115848.515000", "115848.515000", "115848.515000", "115848.515000", "115848.515000", "115848.531000", "115848.531000", "115848.531000", "115848.531000", "115928.500000", "115928.500000", "115928.500000", "115928.500000", "115928.500000", "115928.500000", "115928.500000", "115928.515000", "115928.515000", "115928.515000", "115928.515000", "115928.515000", "115928.515000", "115928.515000", "115928.515000", "115928.531000", "115928.531000", "115928.531000", "115928.531000", "115928.531000", "120008.500000", "120008.500000", "120008.500000", "120008.500000", "120008.500000", "120008.500000", "120008.500000", "120008.500000", "120008.515000", "120008.515000", "120008.515000", "120008.515000", "120008.515000", "120008.515000", "120008.515000", "120008.515000", "120008.531000", "120008.531000", "120008.531000", "120008.531000", "120048.500000", "120048.500000", "120048.500000", "120048.500000", "120048.500000", "120048.500000", "120048.500000", "120048.515000", "120048.515000", "120048.515000", "120048.515000", "120048.515000", "120048.515000", "120048.515000", "120048.515000", "120048.531000", "120048.531000", "120048.531000", "120048.531000", "120048.531000", "120128.500000", "120128.500000", "120128.500000", "120128.500000", "120128.500000", "120128.500000", "120128.500000", "120128.500000", "120128.515000", "120128.515000", "120128.515000", "120128.515000", "120128.515000", "120128.515000", "120128.515000", "120128.531000", "120128.531000", "120128.531000", "120128.531000", "120128.531000", "120208.500000", "120208.500000", "120208.500000", "120208.500000", "120208.500000", "120208.500000", "120208.500000", "120208.500000", "120208.515000", "120208.515000", "120208.515000", "120208.515000", "120208.515000", "120208.515000", "120208.515000", "120208.531000", "120208.531000", "120208.531000", "120208.531000", "120208.531000", "120248.500000", "120248.500000", "120248.500000", "120248.500000", "120248.500000", "120248.500000", "120248.500000", "120248.500000", "120248.515000", "120248.515000", "120248.515000", "120248.515000", "120248.515000", "120248.515000", "120248.515000", "120248.531000", "120248.531000", "120248.531000", "120248.531000", "120248.531000", "120328.500000", "120328.500000", "120328.500000", "120328.500000", "120328.500000", "120328.500000", "120328.500000", "120328.500000", "120328.515000", "120328.515000", "120328.515000", "120328.515000", "120328.515000", "120328.515000", "120328.515000", "120328.531000", "120328.531000", "120328.531000", "120328.531000", "120328.531000", "120408.500000", "120408.500000", "120408.500000", "120408.500000", "120408.500000", "120408.500000", "120408.500000", "120408.515000", "120408.515000", "120408.515000", "120408.515000", "120408.515000", "120408.515000", "120408.515000", "120408.515000", "120408.531000", "120408.531000", "120408.531000", "120408.531000", "120408.531000", "120445.187000", "120445.203000", "120445.203000", "120445.203000", "120445.203000", "120445.203000", "120445.203000", "120445.203000", "120445.203000", "120445.218000", "120445.218000", "120445.218000", "120445.218000", "120445.218000", "120445.218000", "120445.218000", "120445.218000", "120445.234000", "120445.234000"],
      "InstanceCreationTime": ["115728.500000", "115728.500000", "115728.500000", "115728.500000", "115728.500000", "115728.515000", "115728.515000", "115728.515000", "115728.515000", "115728.515000", "115728.515000", "115728.515000", "115728.515000", "115728.531000", "115728.531000", "115728.531000", "115728.531000", "115728.531000", "115728.531000", "115728.531000", "115728.531000", "115808.500000", "115808.500000", "115808.500000", "115808.500000", "115808.500000", "115808.500000", "115808.500000", "115808.500000", "115808.515000", "115808.515000", "115808.515000", "115808.515000", "115808.515000", "115808.515000", "115808.515000", "115808.515000", "115808.531000", "115808.531000", "115808.531000", "115808.531000", "115848.500000", "115848.500000", "115848.500000", "115848.500000", "115848.500000", "115848.500000", "115848.500000", "115848.500000", "115848.515000", "115848.515000", "115848.515000", "115848.515000", "115848.515000", "115848.515000", "115848.515000", "115848.515000", "115848.531000", "115848.531000", "115848.531000", "115848.531000", "115928.500000", "115928.500000", "115928.500000", "115928.500000", "115928.500000", "115928.500000", "115928.500000", "115928.515000", "115928.515000", "115928.515000", "115928.515000", "115928.515000", "115928.515000", "115928.515000", "115928.515000", "115928.531000", "115928.531000", "115928.531000", "115928.531000", "115928.531000", "120008.500000", "120008.500000", "120008.500000", "120008.500000", "120008.500000", "120008.500000", "120008.500000", "120008.500000", "120008.515000", "120008.515000", "120008.515000", "120008.515000", "120008.515000", "120008.515000", "120008.515000", "120008.515000", "120008.531000", "120008.531000", "120008.531000", "120008.531000", "120048.500000", "120048.500000", "120048.500000", "120048.500000", "120048.500000", "120048.500000", "120048.500000", "120048.515000", "120048.515000", "120048.515000", "120048.515000", "120048.515000", "120048.515000", "120048.515000", "120048.515000", "120048.531000", "120048.531000", "120048.531000", "120048.531000", "120048.531000", "120128.500000", "120128.500000", "120128.500000", "120128.500000", "120128.500000", "120128.500000", "120128.500000", "120128.500000", "120128.515000", "120128.515000", "120128.515000", "120128.515000", "120128.515000", "120128.515000", "120128.515000", "120128.531000", "120128.531000", "120128.531000", "120128.531000", "120128.531000", "120208.500000", "120208.500000", "120208.500000", "120208.500000", "120208.500000", "120208.500000", "120208.500000", "120208.500000", "120208.515000", "120208.515000", "120208.515000", "120208.515000", "120208.515000", "120208.515000", "120208.515000", "120208.531000", "120208.531000", "120208.531000", "120208.531000", "120208.531000", "120248.500000", "120248.500000", "120248.500000", "120248.500000", "120248.500000", "120248.500000", "120248.500000", "120248.500000", "120248.515000", "120248.515000", "120248.515000", "120248.515000", "120248.515000", "120248.515000", "120248.515000", "120248.531000", "120248.531000", "120248.531000", "120248.531000", "120248.531000", "120328.500000", "120328.500000", "120328.500000", "120328.500000", "120328.500000", "120328.500000", "120328.500000", "120328.500000", "120328.515000", "120328.515000", "120328.515000", "120328.515000", "120328.515000", "120328.515000", "120328.515000", "120328.531000", "120328.531000", "120328.531000", "120328.531000", "120328.531000", "120408.500000", "120408.500000", "120408.500000", "120408.500000", "120408.500000", "120408.500000", "120408.500000", "120408.515000", "120408.515000", "120408.515000", "120408.515000", "120408.515000", "120408.515000", "120408.515000", "120408.515000", "120408.531000", "120408.531000", "120408.531000", "120408.531000", "120408.531000", "120445.187000", "120445.203000", "120445.203000", "120445.203000", "120445.203000", "120445.203000", "120445.203000", "120445.203000", "120445.203000", "120445.218000", "120445.218000", "120445.218000", "120445.218000", "120445.218000", "120445.218000", "120445.218000", "120445.218000", "120445.234000", "120445.234000"],
      "InstanceNumber": [1, 2, 3, 4, 5, 6, 7, 8, 9, 10, 11, 12, 13, 14, 15, 16, 17, 18, 19, 20, 21, 22, 23, 24, 25, 26, 27, 28, 29, 30, 31, 32, 33, 34, 35, 36, 37, 38, 39, 40, 41, 42, 43, 44, 45, 46, 47, 48, 49, 50, 51, 52, 53, 54, 55, 56, 57, 58, 59, 60, 61, 62, 63, 64, 65, 66, 67, 68, 69, 70, 71, 72, 73, 74, 75, 76, 77, 78, 79, 80, 81, 82, 83, 84, 85, 86, 87, 88, 89, 90, 91, 92, 93, 94, 95, 96, 97, 98, 99, 100, 101, 102, 103, 104, 105, 106, 107, 108, 109, 110, 111, 112, 113, 114, 115, 116, 117, 118, 119, 120, 121, 122, 123, 124, 125, 126, 127, 128, 129, 130, 131, 132, 133, 134, 135, 136, 137, 138, 139, 140, 141, 142, 143, 144, 145, 146, 147, 148, 149, 150, 151, 152, 153, 154, 155, 156, 157, 158, 159, 160, 161, 162, 163, 164, 165, 166, 167, 168, 169, 170, 171, 172, 173, 174, 175, 176, 177, 178, 179, 180, 181, 182, 183, 184, 185, 186, 187, 188, 189, 190, 191, 192, 193, 194, 195, 196, 197, 198, 199, 200, 201, 202, 203, 204, 205, 206, 207, 208, 209, 210, 211, 212, 213, 214, 215, 216, 217, 218, 219, 220, 221, 222, 223, 224, 225, 226, 227, 228, 229, 230, 231, 232, 233, 234, 235, 236, 237, 238, 239, 240],
      "LargestImagePixelValue": [1744, 1696, 1652, 1656, 1653, 1625, 1637, 1652, 1625, 1588, 1642, 1632, 1603, 1610, 1603, 1604, 1603, 1611, 1620, 1632, 1608, 1688, 1625, 1619, 1635, 1589, 1610, 1614, 1634, 1665, 1645, 1637, 1641, 1659, 1598, 1589, 1609, 1621, 1668, 1650, 1685, 1627, 1708, 1672, 1675, 1684, 1662, 1667, 1685, 1619, 1755, 1727, 1719, 1753, 1682, 1716, 1740, 1706, 1745, 1767, 1703, 1710, 1729, 1622, 2123, 1603, 1616, 1681, 1628, 1662, 1666, 1681, 1625, 1723, 1706, 1935, 1651, 1707, 1692, 1687, 1699, 1711, 1726, 1704, 1732, 1733, 1771, 1666, 1591, 1688, 1708, 1737, 1711, 1644, 1726, 1692, 1744, 1745, 1682, 1655, 1681, 1739, 1743, 1745, 1702, 1665, 1768, 1733, 1651, 1673, 1718, 1728, 1757, 1709, 1734, 1745, 1855, 1683, 1726, 1790, 1705, 1750, 1788, 1738, 1718, 1674, 1680, 1707, 1706, 1658, 1682, 1636, 1729, 1745, 1699, 1732, 1701, 1749, 1718, 1657, 1694, 1695, 1670, 1732, 1737, 1669, 1767, 1767, 1788, 1717, 1699, 1649, 1627, 1719, 1683, 1727, 1721, 1730, 1772, 1693, 1718, 1853, 1620, 1706, 1667, 1776, 1617, 1626, 1608, 1632, 1640, 1621, 1689, 1688, 1727, 1696, 2305, 1690, 1761, 1690, 2121, 1691, 1721, 1719, 1749, 1798, 1781, 1665, 1672, 1785, 1649, 1698, 1652, 1659, 1689, 1659, 1645, 1778, 1647, 1760, 1677, 1694, 1671, 1687, 1650, 1640, 1723, 1654, 1653, 1647, 1650, 1658, 1637, 1650, 1691, 1646, 1688, 1648, 1680, 1716, 1856, 1722, 1649, 1635, 1643, 1677, 1637, 1738, 1726, 1777, 1739, 1954, 1708, 1699, 1757, 1746, 1779, 1767, 1748, 1766],
      "WindowCenter": [778.0, 774.0, 772.0, 772.0, 773.0, 772.0, 773.0, 772.0, 768.0, 767.0, 767.0, 767.0, 768.0, 770.0, 769.0, 770.0, 770.0, 771.0, 771.0, 771.0, 771.0, 772.0, 772.0, 773.0, 772.0, 771.0, 771.0, 771.0, 771.0, 771.0, 771.0, 771.0, 773.0, 772.0, 771.0, 769.0, 770.0, 770.0, 771.0, 770.0, 771.0, 771.0, 773.0, 773.0, 772.0, 772.0, 772.0, 772.0, 772.0, 771.0, 773.0, 773.0, 772.0, 772.0, 772.0, 772.0, 772.0, 771.0, 773.0, 773.0, 772.0, 771.0, 771.0, 771.0, 774.0, 770.0, 770.0, 771.0, 771.0, 773.0, 773.0, 772.0, 772.0, 774.0, 774.0, 775.0, 772.0, 774.0, 774.0, 773.0, 773.0, 774.0, 774.0, 774.0, 774.0, 774.0, 774.0, 772.0, 772.0, 774.0, 774.0, 774.0, 773.0, 773.0, 775.0, 775.0, 775.0, 773.0, 772.0, 773.0, 774.0, 775.0, 775.0, 774.0, 774.0, 774.0, 775.0, 775.0, 773.0, 774.0, 774.0, 774.0, 774.0, 773.0, 773.0, 774.0, 774.0, 773.0, 775.0, 775.0, 774.0, 775.0, 775.0, 774.0, 774.0, 774.0, 773.0, 773.0, 773.0, 773.0, 773.0, 773.0, 775.0, 775.0, 774.0, 775.0, 774.0, 774.0, 775.0, 774.0, 775.0, 777.0, 776.0, 777.0, 777.0, 775.0, 777.0, 778.0, 780.0, 780.0, 781.0, 778.0, 776.0, 776.0, 775.0, 778.0, 777.0, 777.0, 777.0, 776.0, 777.0, 791.0, 775.0, 783.0, 775.0, 774.0, 773.0, 768.0, 770.0, 771.0, 773.0, 773.0, 774.0, 775.0, 776.0, 779.0, 784.0, 777.0, 778.0, 778.0, 781.0, 776.0, 778.0, 779.0, 779.0, 791.0, 779.0, 774.0, 773.0, 776.0, 770.0, 770.0, 773.0, 771.0, 766.0, 766.0, 769.0, 775.0, 780.0, 782.0, 782.0, 777.0, 777.0, 778.0, 778.0, 779.0, 785.0, 776.0, 776.0, 775.0, 775.0, 775.0, 775.0, 777.0, 777.0, 776.0, 777.0, 779.0, 782.0, 781.0, 790.0, 782.0, 779.0, 778.0, 779.0, 779.0, 780.0, 782.0, 781.0, 782.0, 781.0, 784.0, 781.0, 781.0, 782.0, 781.0, 780.0, 780.0, 780.0, 781.0],
      "WindowWidth": [1633.0, 1623.0, 1620.0, 1618.0, 1621.0, 1618.0, 1621.0, 1617.0, 1611.0, 1607.0, 1607.0, 1606.0, 1609.0, 1614.0, 1612.0, 1614.0, 1614.0, 1616.0, 1616.0, 1617.0, 1617.0, 1619.0, 1619.0, 1621.0, 1619.0, 1615.0, 1616.0, 1616.0, 1615.0, 1616.0, 1615.0, 1617.0, 1621.0, 1618.0, 1615.0, 1612.0, 1613.0, 1613.0, 1615.0, 1613.0, 1615.0, 1615.0, 1620.0, 1621.0, 1618.0, 1618.0, 1617.0, 1618.0, 1618.0, 1616.0, 1620.0, 1620.0, 1618.0, 1619.0, 1620.0, 1618.0, 1618.0, 1618.0, 1623.0, 1622.0, 1617.0, 1616.0, 1617.0, 1615.0, 1626.0, 1614.0, 1614.0, 1616.0, 1617.0, 1621.0, 1620.0, 1619.0, 1619.0, 1625.0, 1623.0, 1626.0, 1618.0, 1622.0, 1622.0, 1620.0, 1622.0, 1622.0, 1624.0, 1622.0, 1624.0, 1624.0, 1623.0, 1618.0, 1617.0, 1623.0, 1624.0, 1625.0, 1622.0, 1621.0, 1626.0, 1626.0, 1625.0, 1621.0, 1619.0, 1620.0, 1622.0, 1626.0, 1626.0, 1624.0, 1622.0, 1622.0, 1626.0, 1625.0, 1622.0, 1622.0, 1624.0, 1622.0, 1623.0, 1621.0, 1622.0, 1623.0, 1624.0, 1620.0, 1625.0, 1627.0, 1624.0, 1625.0, 1626.0, 1624.0, 1622.0, 1622.0, 1621.0, 1621.0, 1621.0, 1620.0, 1621.0, 1621.0, 1626.0, 1626.0, 1624.0, 1625.0, 1624.0, 1624.0, 1626.0, 1624.0, 1626.0, 1631.0, 1629.0, 1630.0, 1630.0, 1626.0, 1631.0, 1634.0, 1640.0, 1638.0, 1638.0, 1631.0, 1629.0, 1628.0, 1626.0, 1632.0, 1631.0, 1631.0, 1630.0, 1627.0, 1633.0, 1664.0, 1627.0, 1645.0, 1624.0, 1622.0, 1619.0, 1608.0, 1613.0, 1616.0, 1620.0, 1621.0, 1623.0, 1625.0, 1628.0, 1634.0, 1650.0, 1629.0, 1634.0, 1633.0, 1641.0, 1627.0, 1633.0, 1633.0, 1636.0, 1668.0, 1639.0, 1626.0, 1622.0, 1630.0, 1615.0, 1615.0, 1622.0, 1617.0, 1603.0, 1604.0, 1611.0, 1628.0, 1636.0, 1645.0, 1642.0, 1628.0, 1628.0, 1630.0, 1631.0, 1632.0, 1652.0, 1627.0, 1627.0, 1625.0, 1626.0, 1626.0, 1627.0, 1630.0, 1631.0, 1627.0, 1630.0, 1635.0, 1642.0, 1642.0, 1663.0, 1640.0, 1633.0, 1631.0, 1632.0, 1633.0, 1635.0, 1640.0, 1638.0, 1640.0, 1640.0, 1648.0, 1639.0, 1640.0, 1642.0, 1638.0, 1637.0, 1637.0, 1638.0, 1640.0]
    },
    "slices": {}
  }
}