{
  "AcquisitionMatrixPE": 68,
  "AcquisitionNumber": 1,
  "AcquisitionTime": "12:30:19.507500",
  "BandwidthPerPixelPhaseEncode": 31.289,
  "BaseResolution": 68,
  "CoilString": "C:HEA;HEP",
  "ConversionSoftware": "dcm2niix",
  "ConversionSoftwareVersion": "v1.0.20190902",
  "DerivedVendorReportedEchoSpacing": 0.000470002,
  "DeviceSerialNumber": "35450",
  "DwellTime": 3e-06,
  "EchoTime": 0.023,
  "EffectiveEchoSpacing": 0.000470002,
  "FlipAngle": 76,
  "ImageOrientationPatientDICOM": [0.999657, 0.00314478, 0.0259874, 3.2883e-08, 0.992757, -0.120137],
  "ImageType": [
    "ORIGINAL",
    "PRIMARY",
    "M",
    "ND",
    "MOSAIC"
],
  "ImagingFrequency": 123.219,
  "InPlanePhaseEncodingDirectionDICOM": "COL",
  "InstitutionAddress": "Univeristy_Ave._197_Newark_North_East_US_07102-1814",
  "InstitutionName": "RUBIC",
  "InstitutionalDepartmentName": "Department",
  "MRAcquisitionType": "2D",
  "MagneticFieldStrength": 3,
  "Manufacturer": "Siemens",
  "ManufacturersModelName": "TrioTim",
  "Modality": "MR",
  "PartialFourier": 1,
  "PatientPosition": "HFS",
  "PercentPhaseFOV": 100,
  "PhaseEncodingDirection": "j-",
  "PhaseEncodingSteps": 68,
  "PhaseResolution": 1,
  "PixelBandwidth": 2451,
  "ProcedureStepDescription": "Krekelberg_David",
  "ProtocolName": "ep2d_bold_RestEPI_3",
  "PulseSequenceDetails": "%SiemensSeq%_ep2d_bold",
  "ReceiveCoilName": "HeadMatrix",
  "ReconMatrixPE": 68,
  "RepetitionTime": 2,
  "SAR": 0.190741,
  "ScanOptions": "FS",
  "ScanningSequence": "EP",
  "SequenceName": "_epfid2d1_68",
  "SequenceVariant": "SK",
  "SeriesDescription": "ep2d_bold_RestEPI_3",
  "SeriesNumber": 10,
  "ShimSetting": [1964, -641, -7571, 669, 57, 15, 77, -203],
  "SliceThickness": 2.5,
  "SliceTiming": [1.95, 1.895, 1.84, 1.7825, 1.7275, 1.6725, 1.6175, 1.56, 1.505, 1.45, 1.3925, 1.3375, 1.2825, 1.225, 1.17, 1.115, 1.0575, 1.0025, 0.9475, 0.8925, 0.835, 0.78, 0.725, 0.6675, 0.6125, 0.5575, 0.5, 0.445, 0.39, 0.3325, 0.2775, 0.2225, 0.1675, 0.11, 0.055, 0],
  "SoftwareVersions": "syngo_MR_B19",
  "SpacingBetweenSlices": 3,
  "StationName": "MRC35450",
  "TaskName": "rest",
  "TotalReadoutTime": 0.0314901,
  "TxRefAmp": 354.672,
  "dcmmeta_affine": [
    [-2.998971939086914, 9.864903205425435e-08, 0.07853084057569504, 97.87889099121094],
    [-0.009434349834918976, 2.978271961212158, -0.36028704047203064, -68.6148681640625],
    [0.07796207815408707, 0.36041054129600525, 2.9772515296936035, -63.93480682373047],
    [0.0, 0.0, 0.0, 1.0]
],
  "dcmmeta_reorient_transform": [
    [0.0, -1.0, 0.0, 67.0],
    [1.0, 0.0, 0.0, 0.0],
    [0.0, 0.0, 1.0, 0.0],
    [0.0, 0.0, 0.0, 1.0]
],
  "dcmmeta_shape": [68, 68, 36, 240],
  "dcmmeta_slice_dim": 2,
  "dcmmeta_version": 0.6,
  "global": {
    "const": {
      "AcquisitionMatrix": [68, 0, 0, 68],
      "AngioFlag": "N",
      "BitsAllocated": 16,
      "BitsStored": 12,
      "Columns": 408,
      "EchoNumbers": 1,
      "EchoTime": 23.0,
      "EchoTrainLength": 1,
      "FlipAngle": 76.0,
      "HighBit": 11,
      "ImageOrientationPatient": [0.99965732500203, 0.00314478323318, 0.02598736054692, 3.2883011e-08, 0.99275734115154, -0.1201368452629],
      "ImagePositionPatient": [-607.70414856474, -638.83943975358, 8.2289359401263],
      "ImageType": [
        "ORIGINAL",
        "PRIMARY",
        "M",
        "ND",
        "MOSAIC"
],
      "ImagedNucleus": "1H",
      "ImagingFrequency": 123.218528,
      "InPlanePhaseEncodingDirection": "COL",
      "MRAcquisitionType": "2D",
      "MagneticFieldStrength": 3.0,
      "Manufacturer": "SIEMENS",
      "ManufacturerModelName": "TrioTim",
      "Modality": "MR",
      "NumberOfAverages": 1.0,
      "NumberOfPhaseEncodingSteps": 68,
      "PercentPhaseFieldOfView": 100.0,
      "PercentSampling": 100.0,
      "PerformedProcedureStepStartTime": "113054.359000",
      "PhotometricInterpretation": "MONOCHROME2",
      "PixelBandwidth": 2451.0,
      "PixelRepresentation": 0,
      "PixelSpacing": [3.0, 3.0],
      "ProtocolName": "ep2d_bold_RestEPI_3",
      "RepetitionTime": 2000.0,
      "Rows": 408,
      "SAR": 0.19074052894558,
      "SamplesPerPixel": 1,
      "ScanOptions": "FS",
      "ScanningSequence": "EP",
      "SequenceName": "*epfid2d1_68",
      "SequenceVariant": "SK",
      "SeriesDescription": "ep2d_bold_RestEPI_3",
      "SeriesNumber": 10,
      "SeriesTime": "123113.625000",
      "SliceLocation": -52.647479188402,
      "SliceThickness": 2.5,
      "SmallestImagePixelValue": 0,
      "SoftwareVersions": "syngo MR B19",
      "SpacingBetweenSlices": 2.9999999914125,
      "SpecificCharacterSet": "ISO_IR 100",
      "StudyID": "1",
      "StudyTime": "113054.312000",
      "TransmitCoilName": "Body",
      "VariableFlipAngleFlag": "N",
      "WindowCenterWidthExplanation": "Algo1",
      "dBdt": 0.0},
    "slices": {}
  },
  "time": {
    "samples": {
      "AcquisitionNumber": [1, 2, 3, 4, 5, 6, 7, 8, 9, 10, 11, 12, 13, 14, 15, 16, 17, 18, 19, 20, 21, 22, 23, 24, 25, 26, 27, 28, 29, 30, 31, 32, 33, 34, 35, 36, 37, 38, 39, 40, 41, 42, 43, 44, 45, 46, 47, 48, 49, 50, 51, 52, 53, 54, 55, 56, 57, 58, 59, 60, 61, 62, 63, 64, 65, 66, 67, 68, 69, 70, 71, 72, 73, 74, 75, 76, 77, 78, 79, 80, 81, 82, 83, 84, 85, 86, 87, 88, 89, 90, 91, 92, 93, 94, 95, 96, 97, 98, 99, 100, 101, 102, 103, 104, 105, 106, 107, 108, 109, 110, 111, 112, 113, 114, 115, 116, 117, 118, 119, 120, 121, 122, 123, 124, 125, 126, 127, 128, 129, 130, 131, 132, 133, 134, 135, 136, 137, 138, 139, 140, 141, 142, 143, 144, 145, 146, 147, 148, 149, 150, 151, 152, 153, 154, 155, 156, 157, 158, 159, 160, 161, 162, 163, 164, 165, 166, 167, 168, 169, 170, 171, 172, 173, 174, 175, 176, 177, 178, 179, 180, 181, 182, 183, 184, 185, 186, 187, 188, 189, 190, 191, 192, 193, 194, 195, 196, 197, 198, 199, 200, 201, 202, 203, 204, 205, 206, 207, 208, 209, 210, 211, 212, 213, 214, 215, 216, 217, 218, 219, 220, 221, 222, 223, 224, 225, 226, 227, 228, 229, 230, 231, 232, 233, 234, 235, 236, 237, 238, 239, 240],
      "AcquisitionTime": ["123019.507500", "123021.517500", "123023.525000", "123025.532500", "123027.540000", "123029.547500", "123031.557500", "123033.565000", "123035.572500", "123037.580000", "123039.587500", "123041.597500", "123043.605000", "123045.612500", "123047.620000", "123049.630000", "123051.637500", "123053.645000", "123055.652500", "123057.660000", "123059.670000", "123101.677500", "123103.685000", "123105.692500", "123107.700000", "123109.710000", "123111.717500", "123113.725000", "123115.732500", "123117.742500", "123119.750000", "123121.757500", "123123.765000", "123125.772500", "123127.782500", "123129.790000", "123131.797500", "123133.805000", "123135.812500", "123137.822500", "123139.830000", "123141.837500", "123143.845000", "123145.855000", "123147.862500", "123149.870000", "123151.877500", "123153.885000", "123155.895000", "123157.902500", "123159.910000", "123201.917500", "123203.925000", "123205.935000", "123207.942500", "123209.950000", "123211.957500", "123213.965000", "123215.975000", "123217.982500", "123219.990000", "123221.997500", "123224.007500", "123226.015000", "123228.022500", "123230.030000", "123232.037500", "123234.047500", "123236.055000", "123238.062500", "123240.070000", "123242.077500", "123244.087500", "123246.095000", "123248.102500", "123250.110000", "123252.120000", "123254.127500", "123256.135000", "123258.142500", "123300.150000", "123302.160000", "123304.167500", "123306.175000", "123308.182500", "123310.190000", "123312.200000", "123314.207500", "123316.215000", "123318.222500", "123320.232500", "123322.240000", "123324.247500", "123326.255000", "123328.262500", "123330.272500", "123332.280000", "123334.287500", "123336.295000", "123338.302500", "123340.312500", "123342.320000", "123344.327500", "123346.335000", "123348.342500", "123350.352500", "123352.360000", "123354.367500", "123356.375000", "123358.385000", "123400.392500", "123402.400000", "123404.407500", "123406.415000", "123408.425000", "123410.432500", "123412.440000", "123414.447500", "123416.455000", "123418.465000", "123420.472500", "123422.480000", "123424.487500", "123426.497500", "123428.505000", "123430.512500", "123432.520000", "123434.527500", "123436.537500", "123438.545000", "123440.552500", "123442.560000", "123444.567500", "123446.577500", "123448.585000", "123450.592500", "123452.600000", "123454.610000", "123456.617500", "123458.625000", "123500.632500", "123502.640000", "123504.650000", "123506.657500", "123508.665000", "123510.672500", "123512.680000", "123514.690000", "123516.697500", "123518.705000", "123520.712500", "123522.720000", "123524.730000", "123526.737500", "123528.745000", "123530.752500", "123532.762500", "123534.770000", "123536.777500", "123538.785000", "123540.792500", "123542.802500", "123544.810000", "123546.817500", "123548.825000", "123550.832500", "123552.842500", "123554.850000", "123556.857500", "123558.865000", "123600.875000", "123602.882500", "123604.890000", "123606.897500", "123608.905000", "123610.915000", "123612.922500", "123614.930000", "123616.937500", "123618.945000", "123620.955000", "123622.962500", "123624.970000", "123626.977500", "123628.987500", "123630.995000", "123633.002500", "123635.010000", "123637.017500", "123639.027500", "123641.035000", "123643.042500", "123645.050000", "123647.057500", "123649.067500", "123651.075000", "123653.082500", "123655.090000", "123657.097500", "123659.107500", "123701.115000", "123703.122500", "123705.130000", "123707.140000", "123709.147500", "123711.155000", "123713.162500", "123715.170000", "123717.180000", "123719.187500", "123721.195000", "123723.202500", "123725.210000", "123727.220000", "123729.227500", "123731.235000", "123733.242500", "123735.252500", "123737.260000", "123739.267500", "123741.275000", "123743.282500", "123745.292500", "123747.300000", "123749.307500", "123751.315000", "123753.322500", "123755.332500", "123757.340000", "123759.347500", "123801.355000", "123803.365000", "123805.372500", "123807.380000", "123809.387500", "123811.395000", "123813.405000", "123815.412500", "123817.420000", "123819.427500"],
      "ContentTime": ["123113.625000", "123113.625000", "123113.625000", "123113.625000", "123113.625000", "123113.640000", "123113.640000", "123113.640000", "123113.640000", "123113.640000", "123113.640000", "123113.640000", "123113.640000", "123113.656000", "123113.656000", "123113.656000", "123113.656000", "123113.656000", "123113.656000", "123113.656000", "123113.671000", "123113.671000", "123113.671000", "123113.671000", "123113.671000", "123113.671000", "123113.671000", "123153.625000", "123153.625000", "123153.625000", "123153.625000", "123153.625000", "123153.625000", "123153.625000", "123153.640000", "123153.640000", "123153.640000", "123153.640000", "123153.640000", "123153.640000", "123153.640000", "123153.640000", "123153.656000", "123153.656000", "123153.656000", "123153.656000", "123153.656000", "123233.625000", "123233.625000", "123233.625000", "123233.625000", "123233.625000", "123233.625000", "123233.625000", "123233.640000", "123233.640000", "123233.640000", "123233.640000", "123233.640000", "123233.640000", "123233.640000", "123233.640000", "123233.656000", "123233.656000", "123233.656000", "123233.656000", "123233.656000", "123313.625000", "123313.625000", "123313.625000", "123313.625000", "123313.625000", "123313.625000", "123313.625000", "123313.640000", "123313.640000", "123313.640000", "123313.640000", "123313.640000", "123313.640000", "123313.640000", "123313.640000", "123313.656000", "123313.656000", "123313.656000", "123313.656000", "123313.656000", "123353.625000", "123353.625000", "123353.625000", "123353.625000", "123353.625000", "123353.625000", "123353.625000", "123353.640000", "123353.640000", "123353.640000", "123353.640000", "123353.640000", "123353.640000", "123353.640000", "123353.640000", "123353.656000", "123353.656000", "123353.656000", "123353.656000", "123353.656000", "123433.625000", "123433.625000", "123433.625000", "123433.625000", "123433.625000", "123433.625000", "123433.625000", "123433.640000", "123433.640000", "123433.640000", "123433.640000", "123433.640000", "123433.640000", "123433.640000", "123433.640000", "123433.656000", "123433.656000", "123433.656000", "123433.656000", "123433.656000", "123513.625000", "123513.625000", "123513.625000", "123513.625000", "123513.625000", "123513.625000", "123513.625000", "123513.640000", "123513.640000", "123513.640000", "123513.640000", "123513.640000", "123513.640000", "123513.640000", "123513.640000", "123513.656000", "123513.656000", "123513.656000", "123513.656000", "123513.656000", "123553.625000", "123553.625000", "123553.625000", "123553.625000", "123553.625000", "123553.625000", "123553.625000", "123553.640000", "123553.640000", "123553.640000", "123553.640000", "123553.640000", "123553.640000", "123553.640000", "123553.640000", "123553.656000", "123553.656000", "123553.656000", "123553.656000", "123553.656000", "123633.625000", "123633.625000", "123633.625000", "123633.625000", "123633.625000", "123633.625000", "123633.625000", "123633.625000", "123633.640000", "123633.640000", "123633.640000", "123633.640000", "123633.640000", "123633.640000", "123633.640000", "123633.656000", "123633.656000", "123633.656000", "123633.656000", "123633.656000", "123713.625000", "123713.625000", "123713.625000", "123713.625000", "123713.625000", "123713.625000", "123713.625000", "123713.640000", "123713.640000", "123713.640000", "123713.640000", "123713.640000", "123713.640000", "123713.640000", "123713.640000", "123713.656000", "123713.656000", "123713.656000", "123713.656000", "123713.656000", "123753.625000", "123753.625000", "123753.625000", "123753.625000", "123753.625000", "123753.625000", "123753.625000", "123753.625000", "123753.640000", "123753.640000", "123753.640000", "123753.640000", "123753.640000", "123753.640000", "123753.640000", "123753.656000", "123753.656000", "123753.656000", "123753.656000", "123753.656000", "123818.546000", "123818.546000", "123818.546000", "123818.562000", "123818.562000", "123818.562000", "123818.562000", "123818.562000", "123818.562000", "123818.562000", "123818.562000", "123818.578000", "123818.578000"],
      "InstanceCreationTime": ["123113.625000", "123113.625000", "123113.625000", "123113.625000", "123113.625000", "123113.640000", "123113.640000", "123113.640000", "123113.640000", "123113.640000", "123113.640000", "123113.640000", "123113.640000", "123113.656000", "123113.656000", "123113.656000", "123113.656000", "123113.656000", "123113.656000", "123113.656000", "123113.671000", "123113.671000", "123113.671000", "123113.671000", "123113.671000", "123113.671000", "123113.671000", "123153.625000", "123153.625000", "123153.625000", "123153.625000", "123153.625000", "123153.625000", "123153.625000", "123153.640000", "123153.640000", "123153.640000", "123153.640000", "123153.640000", "123153.640000", "123153.640000", "123153.640000", "123153.656000", "123153.656000", "123153.656000", "123153.656000", "123153.656000", "123233.625000", "123233.625000", "123233.625000", "123233.625000", "123233.625000", "123233.625000", "123233.625000", "123233.640000", "123233.640000", "123233.640000", "123233.640000", "123233.640000", "123233.640000", "123233.640000", "123233.640000", "123233.656000", "123233.656000", "123233.656000", "123233.656000", "123233.656000", "123313.625000", "123313.625000", "123313.625000", "123313.625000", "123313.625000", "123313.625000", "123313.625000", "123313.640000", "123313.640000", "123313.640000", "123313.640000", "123313.640000", "123313.640000", "123313.640000", "123313.640000", "123313.656000", "123313.656000", "123313.656000", "123313.656000", "123313.656000", "123353.625000", "123353.625000", "123353.625000", "123353.625000", "123353.625000", "123353.625000", "123353.625000", "123353.640000", "123353.640000", "123353.640000", "123353.640000", "123353.640000", "123353.640000", "123353.640000", "123353.640000", "123353.656000", "123353.656000", "123353.656000", "123353.656000", "123353.656000", "123433.625000", "123433.625000", "123433.625000", "123433.625000", "123433.625000", "123433.625000", "123433.625000", "123433.640000", "123433.640000", "123433.640000", "123433.640000", "123433.640000", "123433.640000", "123433.640000", "123433.640000", "123433.656000", "123433.656000", "123433.656000", "123433.656000", "123433.656000", "123513.625000", "123513.625000", "123513.625000", "123513.625000", "123513.625000", "123513.625000", "123513.625000", "123513.640000", "123513.640000", "123513.640000", "123513.640000", "123513.640000", "123513.640000", "123513.640000", "123513.640000", "123513.656000", "123513.656000", "123513.656000", "123513.656000", "123513.656000", "123553.625000", "123553.625000", "123553.625000", "123553.625000", "123553.625000", "123553.625000", "123553.625000", "123553.640000", "123553.640000", "123553.640000", "123553.640000", "123553.640000", "123553.640000", "123553.640000", "123553.640000", "123553.656000", "123553.656000", "123553.656000", "123553.656000", "123553.656000", "123633.625000", "123633.625000", "123633.625000", "123633.625000", "123633.625000", "123633.625000", "123633.625000", "123633.625000", "123633.640000", "123633.640000", "123633.640000", "123633.640000", "123633.640000", "123633.640000", "123633.640000", "123633.656000", "123633.656000", "123633.656000", "123633.656000", "123633.656000", "123713.625000", "123713.625000", "123713.625000", "123713.625000", "123713.625000", "123713.625000", "123713.625000", "123713.640000", "123713.640000", "123713.640000", "123713.640000", "123713.640000", "123713.640000", "123713.640000", "123713.640000", "123713.656000", "123713.656000", "123713.656000", "123713.656000", "123713.656000", "123753.625000", "123753.625000", "123753.625000", "123753.625000", "123753.625000", "123753.625000", "123753.625000", "123753.625000", "123753.640000", "123753.640000", "123753.640000", "123753.640000", "123753.640000", "123753.640000", "123753.640000", "123753.656000", "123753.656000", "123753.656000", "123753.656000", "123753.656000", "123818.546000", "123818.546000", "123818.546000", "123818.562000", "123818.562000", "123818.562000", "123818.562000", "123818.562000", "123818.562000", "123818.562000", "123818.562000", "123818.578000", "123818.578000"],
      "InstanceNumber": [1, 2, 3, 4, 5, 6, 7, 8, 9, 10, 11, 12, 13, 14, 15, 16, 17, 18, 19, 20, 21, 22, 23, 24, 25, 26, 27, 28, 29, 30, 31, 32, 33, 34, 35, 36, 37, 38, 39, 40, 41, 42, 43, 44, 45, 46, 47, 48, 49, 50, 51, 52, 53, 54, 55, 56, 57, 58, 59, 60, 61, 62, 63, 64, 65, 66, 67, 68, 69, 70, 71, 72, 73, 74, 75, 76, 77, 78, 79, 80, 81, 82, 83, 84, 85, 86, 87, 88, 89, 90, 91, 92, 93, 94, 95, 96, 97, 98, 99, 100, 101, 102, 103, 104, 105, 106, 107, 108, 109, 110, 111, 112, 113, 114, 115, 116, 117, 118, 119, 120, 121, 122, 123, 124, 125, 126, 127, 128, 129, 130, 131, 132, 133, 134, 135, 136, 137, 138, 139, 140, 141, 142, 143, 144, 145, 146, 147, 148, 149, 150, 151, 152, 153, 154, 155, 156, 157, 158, 159, 160, 161, 162, 163, 164, 165, 166, 167, 168, 169, 170, 171, 172, 173, 174, 175, 176, 177, 178, 179, 180, 181, 182, 183, 184, 185, 186, 187, 188, 189, 190, 191, 192, 193, 194, 195, 196, 197, 198, 199, 200, 201, 202, 203, 204, 205, 206, 207, 208, 209, 210, 211, 212, 213, 214, 215, 216, 217, 218, 219, 220, 221, 222, 223, 224, 225, 226, 227, 228, 229, 230, 231, 232, 233, 234, 235, 236, 237, 238, 239, 240],
      "LargestImagePixelValue": [1899, 1796, 1738, 1615, 1660, 1635, 1628, 1626, 1625, 2190, 1688, 1709, 1689, 1632, 1618, 1592, 1617, 1624, 1660, 1664, 1659, 1714, 1698, 1715, 1674, 1720, 1742, 1677, 1622, 1625, 1658, 1657, 1668, 1673, 1651, 1629, 1671, 1668, 1685, 1643, 1631, 1647, 1654, 1634, 1637, 1625, 1648, 1623, 1657, 1653, 1708, 1687, 1691, 1677, 1637, 1649, 1680, 1667, 1652, 1674, 1695, 1661, 1711, 1709, 1727, 1715, 1675, 1656, 1719, 1695, 1649, 1652, 1711, 1655, 1630, 1676, 1647, 1621, 1732, 1708, 1671, 1727, 1654, 1665, 1617, 1695, 1645, 1682, 1696, 1694, 1662, 1737, 1629, 1936, 1648, 1610, 1642, 1609, 1624, 1647, 1617, 1661, 1629, 1655, 1645, 1669, 1657, 1675, 1649, 1738, 1827, 1790, 1678, 1649, 1620, 1635, 1629, 1607, 1596, 1672, 1616, 1872, 1693, 1702, 1676, 1638, 1614, 1602, 1632, 1594, 1815, 1678, 1653, 1711, 1714, 1717, 1680, 1670, 1644, 1667, 1653, 1654, 1626, 1672, 1707, 1751, 1718, 1669, 1709, 1673, 1708, 1685, 1675, 1852, 1774, 1703, 1723, 1736, 1646, 1727, 1742, 1665, 1693, 1667, 1695, 1664, 1677, 1679, 1649, 1690, 1704, 1728, 1814, 1793, 1716, 1717, 1687, 1758, 1654, 1628, 1655, 1640, 1630, 1652, 1650, 1724, 1774, 1679, 1815, 1666, 1707, 1687, 1670, 1751, 1604, 1799, 1662, 1665, 1666, 1655, 1679, 1661, 1806, 1727, 1797, 1717, 1624, 1791, 1710, 1704, 1630, 1629, 1637, 1645, 1621, 1669, 1688, 1665, 1637, 1689, 1665, 1685, 1674, 1654, 1666, 1660, 1826, 1657, 2163, 1666, 1666, 1686, 1650, 2153, 1652, 1675, 1825, 1722, 1683, 1643],
      "WindowCenter": [792.0, 783.0, 783.0, 780.0, 785.0, 778.0, 777.0, 777.0, 775.0, 785.0, 782.0, 778.0, 771.0, 774.0, 773.0, 770.0, 770.0, 772.0, 774.0, 775.0, 776.0, 777.0, 777.0, 779.0, 779.0, 783.0, 783.0, 782.0, 780.0, 778.0, 784.0, 786.0, 780.0, 778.0, 776.0, 777.0, 778.0, 781.0, 784.0, 780.0, 779.0, 778.0, 777.0, 777.0, 777.0, 777.0, 777.0, 778.0, 778.0, 779.0, 781.0, 783.0, 780.0, 779.0, 778.0, 777.0, 777.0, 776.0, 777.0, 777.0, 778.0, 778.0, 780.0, 780.0, 780.0, 780.0, 779.0, 780.0, 786.0, 787.0, 784.0, 784.0, 789.0, 782.0, 777.0, 779.0, 775.0, 779.0, 789.0, 789.0, 782.0, 781.0, 779.0, 777.0, 776.0, 779.0, 779.0, 782.0, 786.0, 792.0, 781.0, 785.0, 779.0, 783.0, 776.0, 775.0, 776.0, 774.0, 774.0, 775.0, 776.0, 778.0, 777.0, 778.0, 778.0, 778.0, 779.0, 784.0, 784.0, 786.0, 787.0, 793.0, 785.0, 782.0, 780.0, 782.0, 777.0, 776.0, 777.0, 780.0, 780.0, 785.0, 784.0, 784.0, 782.0, 778.0, 779.0, 778.0, 779.0, 781.0, 792.0, 781.0, 779.0, 784.0, 788.0, 792.0, 787.0, 785.0, 781.0, 779.0, 777.0, 777.0, 778.0, 782.0, 784.0, 787.0, 786.0, 785.0, 783.0, 782.0, 783.0, 781.0, 782.0, 784.0, 790.0, 791.0, 788.0, 782.0, 779.0, 781.0, 783.0, 780.0, 779.0, 779.0, 779.0, 778.0, 778.0, 779.0, 778.0, 779.0, 780.0, 781.0, 785.0, 792.0, 789.0, 788.0, 784.0, 783.0, 779.0, 777.0, 778.0, 779.0, 779.0, 782.0, 782.0, 782.0, 783.0, 782.0, 794.0, 784.0, 789.0, 785.0, 777.0, 781.0, 782.0, 781.0, 782.0, 782.0, 781.0, 779.0, 782.0, 781.0, 791.0, 793.0, 792.0, 788.0, 787.0, 785.0, 784.0, 784.0, 777.0, 776.0, 775.0, 776.0, 778.0, 778.0, 778.0, 778.0, 779.0, 780.0, 780.0, 783.0, 779.0, 779.0, 780.0, 779.0, 778.0, 775.0, 781.0, 778.0, 780.0, 781.0, 780.0, 785.0, 780.0, 782.0, 793.0, 788.0, 788.0, 778.0],
      "WindowWidth": [1667.0, 1643.0, 1643.0, 1634.0, 1646.0, 1630.0, 1627.0, 1627.0, 1623.0, 1649.0, 1636.0, 1629.0, 1612.0, 1619.0, 1618.0, 1609.0, 1609.0, 1614.0, 1620.0, 1622.0, 1624.0, 1626.0, 1627.0, 1633.0, 1631.0, 1641.0, 1643.0, 1640.0, 1634.0, 1628.0, 1644.0, 1649.0, 1637.0, 1630.0, 1624.0, 1626.0, 1630.0, 1637.0, 1643.0, 1633.0, 1631.0, 1630.0, 1627.0, 1626.0, 1627.0, 1626.0, 1627.0, 1629.0, 1630.0, 1633.0, 1637.0, 1641.0, 1634.0, 1632.0, 1629.0, 1627.0, 1626.0, 1624.0, 1627.0, 1628.0, 1631.0, 1630.0, 1635.0, 1635.0, 1635.0, 1636.0, 1633.0, 1633.0, 1650.0, 1651.0, 1645.0, 1646.0, 1654.0, 1635.0, 1622.0, 1629.0, 1622.0, 1631.0, 1656.0, 1655.0, 1637.0, 1635.0, 1628.0, 1624.0, 1624.0, 1630.0, 1630.0, 1638.0, 1648.0, 1663.0, 1638.0, 1650.0, 1633.0, 1642.0, 1626.0, 1624.0, 1625.0, 1621.0, 1621.0, 1623.0, 1626.0, 1631.0, 1628.0, 1632.0, 1630.0, 1631.0, 1634.0, 1648.0, 1645.0, 1650.0, 1654.0, 1666.0, 1648.0, 1638.0, 1634.0, 1640.0, 1627.0, 1625.0, 1629.0, 1635.0, 1634.0, 1649.0, 1645.0, 1644.0, 1638.0, 1629.0, 1632.0, 1629.0, 1634.0, 1636.0, 1667.0, 1641.0, 1633.0, 1646.0, 1657.0, 1662.0, 1650.0, 1644.0, 1635.0, 1632.0, 1626.0, 1628.0, 1630.0, 1640.0, 1644.0, 1650.0, 1646.0, 1646.0, 1642.0, 1639.0, 1643.0, 1639.0, 1641.0, 1644.0, 1661.0, 1661.0, 1652.0, 1637.0, 1632.0, 1638.0, 1642.0, 1636.0, 1633.0, 1632.0, 1633.0, 1630.0, 1630.0, 1632.0, 1629.0, 1633.0, 1636.0, 1638.0, 1650.0, 1665.0, 1655.0, 1653.0, 1642.0, 1643.0, 1630.0, 1627.0, 1630.0, 1630.0, 1631.0, 1638.0, 1640.0, 1640.0, 1641.0, 1639.0, 1671.0, 1647.0, 1656.0, 1647.0, 1627.0, 1637.0, 1639.0, 1638.0, 1639.0, 1639.0, 1638.0, 1631.0, 1639.0, 1637.0, 1663.0, 1666.0, 1664.0, 1651.0, 1647.0, 1650.0, 1645.0, 1645.0, 1629.0, 1626.0, 1624.0, 1626.0, 1630.0, 1632.0, 1631.0, 1630.0, 1633.0, 1636.0, 1637.0, 1643.0, 1633.0, 1634.0, 1635.0, 1633.0, 1631.0, 1624.0, 1640.0, 1632.0, 1637.0, 1637.0, 1638.0, 1649.0, 1638.0, 1641.0, 1669.0, 1654.0, 1657.0, 1631.0]
    },
    "slices": {}
  }
}