{
  "AcquisitionMatrixPE": 68,
  "AcquisitionNumber": 1,
  "AcquisitionTime": "12:21:20.565000",
  "BandwidthPerPixelPhaseEncode": 31.289,
  "BaseResolution": 68,
  "CoilString": "C:HEA;HEP",
  "ConversionSoftware": "dcm2niix",
  "ConversionSoftwareVersion": "v1.0.20190902",
  "DerivedVendorReportedEchoSpacing": 0.000470002,
  "DeviceSerialNumber": "35450",
  "DwellTime": 3e-06,
  "EchoTime": 0.023,
  "EffectiveEchoSpacing": 0.000470002,
  "FlipAngle": 76,
  "ImageOrientationPatientDICOM": [0.999657, 0.00314478, 0.0259874, 3.2883e-08, 0.992757, -0.120137],
  "ImageType": [
    "ORIGINAL",
    "PRIMARY",
    "M",
    "ND",
    "MOSAIC"
],
  "ImagingFrequency": 123.219,
  "InPlanePhaseEncodingDirectionDICOM": "COL",
  "InstitutionAddress": "Univeristy_Ave._197_Newark_North_East_US_07102-1814",
  "InstitutionName": "RUBIC",
  "InstitutionalDepartmentName": "Department",
  "MRAcquisitionType": "2D",
  "MagneticFieldStrength": 3,
  "Manufacturer": "Siemens",
  "ManufacturersModelName": "TrioTim",
  "Modality": "MR",
  "PartialFourier": 1,
  "PatientPosition": "HFS",
  "PercentPhaseFOV": 100,
  "PhaseEncodingDirection": "j-",
  "PhaseEncodingSteps": 68,
  "PhaseResolution": 1,
  "PixelBandwidth": 2451,
  "ProcedureStepDescription": "Krekelberg_David",
  "ProtocolName": "ep2d_bold_RestEPI_2",
  "PulseSequenceDetails": "%SiemensSeq%_ep2d_bold",
  "ReceiveCoilName": "HeadMatrix",
  "ReconMatrixPE": 68,
  "RepetitionTime": 2,
  "SAR": 0.190741,
  "ScanOptions": "FS",
  "ScanningSequence": "EP",
  "SequenceName": "_epfid2d1_68",
  "SequenceVariant": "SK",
  "SeriesDescription": "ep2d_bold_RestEPI_2",
  "SeriesNumber": 9,
  "ShimSetting": [1964, -641, -7571, 669, 57, 15, 77, -203],
  "SliceThickness": 2.5,
  "SliceTiming": [1.9525, 1.8975, 1.84, 1.785, 1.73, 1.6725, 1.6175, 1.5625, 1.5075, 1.45, 1.395, 1.34, 1.2825, 1.2275, 1.1725, 1.115, 1.06, 1.005, 0.9475, 0.8925, 0.8375, 0.7825, 0.725, 0.67, 0.615, 0.5575, 0.5025, 0.4475, 0.39, 0.335, 0.28, 0.225, 0.1675, 0.1125, 0.0575, 0],
  "SoftwareVersions": "syngo_MR_B19",
  "SpacingBetweenSlices": 3,
  "StationName": "MRC35450",
  "TaskName": "rest",
  "TotalReadoutTime": 0.0314901,
  "TxRefAmp": 354.672,
  "dcmmeta_affine": [
    [-2.998971939086914, 9.864903205425435e-08, 0.07853084057569504, 97.87889099121094],
    [-0.009434349834918976, 2.978271961212158, -0.36028704047203064, -68.6148681640625],
    [0.07796207815408707, 0.36041054129600525, 2.9772515296936035, -63.93480682373047],
    [0.0, 0.0, 0.0, 1.0]
],
  "dcmmeta_reorient_transform": [
    [0.0, -1.0, 0.0, 67.0],
    [1.0, 0.0, 0.0, 0.0],
    [0.0, 0.0, 1.0, 0.0],
    [0.0, 0.0, 0.0, 1.0]
],
  "dcmmeta_shape": [68, 68, 36, 240],
  "dcmmeta_slice_dim": 2,
  "dcmmeta_version": 0.6,
  "global": {
    "const": {
      "AcquisitionMatrix": [68, 0, 0, 68],
      "AngioFlag": "N",
      "BitsAllocated": 16,
      "BitsStored": 12,
      "Columns": 408,
      "EchoNumbers": 1,
      "EchoTime": 23.0,
      "EchoTrainLength": 1,
      "FlipAngle": 76.0,
      "HighBit": 11,
      "ImageOrientationPatient": [0.99965732500203, 0.00314478323318, 0.02598736054692, 3.2883011e-08, 0.99275734115154, -0.1201368452629],
      "ImagePositionPatient": [-607.70414856474, -638.83943975358, 8.2289359401263],
      "ImageType": [
        "ORIGINAL",
        "PRIMARY",
        "M",
        "ND",
        "MOSAIC"
],
      "ImagedNucleus": "1H",
      "ImagingFrequency": 123.218523,
      "InPlanePhaseEncodingDirection": "COL",
      "MRAcquisitionType": "2D",
      "MagneticFieldStrength": 3.0,
      "Manufacturer": "SIEMENS",
      "ManufacturerModelName": "TrioTim",
      "Modality": "MR",
      "NumberOfAverages": 1.0,
      "NumberOfPhaseEncodingSteps": 68,
      "PercentPhaseFieldOfView": 100.0,
      "PercentSampling": 100.0,
      "PerformedProcedureStepStartTime": "113054.359000",
      "PhotometricInterpretation": "MONOCHROME2",
      "PixelBandwidth": 2451.0,
      "PixelRepresentation": 0,
      "PixelSpacing": [3.0, 3.0],
      "ProtocolName": "ep2d_bold_RestEPI_2",
      "RepetitionTime": 2000.0,
      "Rows": 408,
      "SAR": 0.19074052894558,
      "SamplesPerPixel": 1,
      "ScanOptions": "FS",
      "ScanningSequence": "EP",
      "SequenceName": "*epfid2d1_68",
      "SequenceVariant": "SK",
      "SeriesDescription": "ep2d_bold_RestEPI_2",
      "SeriesNumber": 9,
      "SeriesTime": "122208.500000",
      "SliceLocation": -52.647479188402,
      "SliceThickness": 2.5,
      "SmallestImagePixelValue": 0,
      "SoftwareVersions": "syngo MR B19",
      "SpacingBetweenSlices": 2.9999999914125,
      "SpecificCharacterSet": "ISO_IR 100",
      "StudyID": "1",
      "StudyTime": "113054.312000",
      "TransmitCoilName": "Body",
      "VariableFlipAngleFlag": "N",
      "WindowCenterWidthExplanation": "Algo1",
      "dBdt": 0.0},
    "slices": {}
  },
  "time": {
    "samples": {
      "AcquisitionNumber": [1, 2, 3, 4, 5, 6, 7, 8, 9, 10, 11, 12, 13, 14, 15, 16, 17, 18, 19, 20, 21, 22, 23, 24, 25, 26, 27, 28, 29, 30, 31, 32, 33, 34, 35, 36, 37, 38, 39, 40, 41, 42, 43, 44, 45, 46, 47, 48, 49, 50, 51, 52, 53, 54, 55, 56, 57, 58, 59, 60, 61, 62, 63, 64, 65, 66, 67, 68, 69, 70, 71, 72, 73, 74, 75, 76, 77, 78, 79, 80, 81, 82, 83, 84, 85, 86, 87, 88, 89, 90, 91, 92, 93, 94, 95, 96, 97, 98, 99, 100, 101, 102, 103, 104, 105, 106, 107, 108, 109, 110, 111, 112, 113, 114, 115, 116, 117, 118, 119, 120, 121, 122, 123, 124, 125, 126, 127, 128, 129, 130, 131, 132, 133, 134, 135, 136, 137, 138, 139, 140, 141, 142, 143, 144, 145, 146, 147, 148, 149, 150, 151, 152, 153, 154, 155, 156, 157, 158, 159, 160, 161, 162, 163, 164, 165, 166, 167, 168, 169, 170, 171, 172, 173, 174, 175, 176, 177, 178, 179, 180, 181, 182, 183, 184, 185, 186, 187, 188, 189, 190, 191, 192, 193, 194, 195, 196, 197, 198, 199, 200, 201, 202, 203, 204, 205, 206, 207, 208, 209, 210, 211, 212, 213, 214, 215, 216, 217, 218, 219, 220, 221, 222, 223, 224, 225, 226, 227, 228, 229, 230, 231, 232, 233, 234, 235, 236, 237, 238, 239, 240],
      "AcquisitionTime": ["122120.565000", "122122.572500", "122124.580000", "122126.590000", "122128.597500", "122130.605000", "122132.612500", "122134.620000", "122136.630000", "122138.637500", "122140.645000", "122142.652500", "122144.662500", "122146.670000", "122148.677500", "122150.685000", "122152.692500", "122154.702500", "122156.710000", "122158.717500", "122200.725000", "122202.732500", "122204.742500", "122206.750000", "122208.757500", "122210.765000", "122212.772500", "122214.782500", "122216.790000", "122218.797500", "122220.805000", "122222.815000", "122224.822500", "122226.830000", "122228.837500", "122230.845000", "122232.855000", "122234.862500", "122236.870000", "122238.877500", "122240.885000", "122242.895000", "122244.902500", "122246.910000", "122248.917500", "122250.927500", "122252.935000", "122254.942500", "122256.950000", "122258.957500", "122300.967500", "122302.975000", "122304.982500", "122306.990000", "122308.997500", "122311.007500", "122313.015000", "122315.022500", "122317.030000", "122319.040000", "122321.047500", "122323.055000", "122325.062500", "122327.070000", "122329.080000", "122331.087500", "122333.095000", "122335.102500", "122337.110000", "122339.120000", "122341.127500", "122343.135000", "122345.142500", "122347.152500", "122349.160000", "122351.167500", "122353.175000", "122355.182500", "122357.192500", "122359.200000", "122401.207500", "122403.215000", "122405.222500", "122407.232500", "122409.240000", "122411.247500", "122413.255000", "122415.262500", "122417.272500", "122419.280000", "122421.287500", "122423.295000", "122425.305000", "122427.312500", "122429.320000", "122431.327500", "122433.335000", "122435.345000", "122437.352500", "122439.360000", "122441.367500", "122443.375000", "122445.385000", "122447.392500", "122449.400000", "122451.407500", "122453.417500", "122455.425000", "122457.432500", "122459.440000", "122501.447500", "122503.457500", "122505.465000", "122507.472500", "122509.480000", "122511.487500", "122513.497500", "122515.505000", "122517.512500", "122519.520000", "122521.530000", "122523.537500", "122525.545000", "122527.552500", "122529.560000", "122531.570000", "122533.577500", "122535.585000", "122537.592500", "122539.600000", "122541.610000", "122543.617500", "122545.625000", "122547.632500", "122549.640000", "122551.650000", "122553.657500", "122555.665000", "122557.672500", "122559.682500", "122601.690000", "122603.697500", "122605.705000", "122607.712500", "122609.722500", "122611.730000", "122613.737500", "122615.745000", "122617.752500", "122619.762500", "122621.770000", "122623.777500", "122625.785000", "122627.795000", "122629.802500", "122631.810000", "122633.817500", "122635.825000", "122637.835000", "122639.842500", "122641.850000", "122643.857500", "122645.865000", "122647.875000", "122649.882500", "122651.890000", "122653.897500", "122655.907500", "122657.915000", "122659.922500", "122701.930000", "122703.937500", "122705.947500", "122707.955000", "122709.962500", "122711.970000", "122713.977500", "122715.987500", "122717.995000", "122720.002500", "122722.010000", "122724.017500", "122726.027500", "122728.035000", "122730.042500", "122732.050000", "122734.060000", "122736.067500", "122738.075000", "122740.082500", "122742.090000", "122744.100000", "122746.107500", "122748.115000", "122750.122500", "122752.130000", "122754.140000", "122756.147500", "122758.155000", "122800.162500", "122802.172500", "122804.180000", "122806.187500", "122808.195000", "122810.202500", "122812.212500", "122814.220000", "122816.227500", "122818.235000", "122820.242500", "122822.252500", "122824.260000", "122826.267500", "122828.275000", "122830.285000", "122832.292500", "122834.300000", "122836.307500", "122838.315000", "122840.325000", "122842.332500", "122844.340000", "122846.347500", "122848.355000", "122850.365000", "122852.372500", "122854.380000", "122856.387500", "122858.395000", "122900.405000", "122902.412500", "122904.420000", "122906.427500", "122908.437500", "122910.445000", "122912.452500", "122914.460000", "122916.467500", "122918.477500", "122920.485000"],
      "ContentTime": ["122208.500000", "122208.500000", "122208.500000", "122208.500000", "122208.500000", "122208.515000", "122208.515000", "122208.515000", "122208.515000", "122208.515000", "122208.515000", "122208.515000", "122208.515000", "122208.531000", "122208.531000", "122208.531000", "122208.531000", "122208.531000", "122208.531000", "122208.531000", "122208.546000", "122208.546000", "122208.546000", "122208.546000", "122248.500000", "122248.500000", "122248.500000", "122248.500000", "122248.500000", "122248.500000", "122248.500000", "122248.500000", "122248.515000", "122248.515000", "122248.515000", "122248.515000", "122248.515000", "122248.515000", "122248.515000", "122248.515000", "122248.531000", "122248.531000", "122248.531000", "122248.531000", "122328.500000", "122328.500000", "122328.500000", "122328.500000", "122328.500000", "122328.500000", "122328.500000", "122328.515000", "122328.515000", "122328.515000", "122328.515000", "122328.515000", "122328.515000", "122328.515000", "122328.515000", "122328.531000", "122328.531000", "122328.531000", "122328.531000", "122328.531000", "122408.500000", "122408.500000", "122408.500000", "122408.500000", "122408.500000", "122408.500000", "122408.500000", "122408.515000", "122408.515000", "122408.515000", "122408.515000", "122408.515000", "122408.515000", "122408.515000", "122408.515000", "122408.531000", "122408.531000", "122408.531000", "122408.531000", "122408.531000", "122448.500000", "122448.500000", "122448.500000", "122448.500000", "122448.500000", "122448.500000", "122448.500000", "122448.500000", "122448.515000", "122448.515000", "122448.515000", "122448.515000", "122448.515000", "122448.515000", "122448.515000", "122448.531000", "122448.531000", "122448.531000", "122448.531000", "122448.531000", "122528.500000", "122528.500000", "122528.500000", "122528.500000", "122528.500000", "122528.500000", "122528.500000", "122528.515000", "122528.515000", "122528.515000", "122528.515000", "122528.515000", "122528.515000", "122528.515000", "122528.515000", "122528.531000", "122528.531000", "122528.531000", "122528.531000", "122528.531000", "122608.500000", "122608.500000", "122608.500000", "122608.500000", "122608.500000", "122608.500000", "122608.500000", "122608.500000", "122608.515000", "122608.515000", "122608.515000", "122608.515000", "122608.515000", "122608.515000", "122608.515000", "122608.531000", "122608.531000", "122608.531000", "122608.531000", "122608.531000", "122648.500000", "122648.500000", "122648.500000", "122648.500000", "122648.500000", "122648.500000", "122648.500000", "122648.515000", "122648.515000", "122648.515000", "122648.515000", "122648.515000", "122648.515000", "122648.515000", "122648.531000", "122648.531000", "122648.531000", "122648.531000", "122648.531000", "122648.531000", "122728.500000", "122728.500000", "122728.500000", "122728.500000", "122728.500000", "122728.500000", "122728.500000", "122728.515000", "122728.515000", "122728.515000", "122728.515000", "122728.515000", "122728.515000", "122728.515000", "122728.515000", "122728.531000", "122728.531000", "122728.531000", "122728.531000", "122728.531000", "122808.500000", "122808.500000", "122808.500000", "122808.500000", "122808.500000", "122808.500000", "122808.500000", "122808.515000", "122808.515000", "122808.515000", "122808.515000", "122808.515000", "122808.515000", "122808.515000", "122808.515000", "122808.531000", "122808.531000", "122808.531000", "122808.531000", "122808.531000", "122848.500000", "122848.500000", "122848.500000", "122848.500000", "122848.500000", "122848.500000", "122848.500000", "122848.515000", "122848.515000", "122848.515000", "122848.515000", "122848.515000", "122848.515000", "122848.515000", "122848.515000", "122848.531000", "122848.531000", "122848.531000", "122848.531000", "122848.531000", "122919.203000", "122919.218000", "122919.218000", "122919.218000", "122919.218000", "122919.218000", "122919.218000", "122919.218000", "122919.234000", "122919.234000", "122919.234000", "122919.234000", "122919.234000", "122919.234000", "122919.234000", "122919.234000"],
      "InstanceCreationTime": ["122208.500000", "122208.500000", "122208.500000", "122208.500000", "122208.500000", "122208.515000", "122208.515000", "122208.515000", "122208.515000", "122208.515000", "122208.515000", "122208.515000", "122208.515000", "122208.531000", "122208.531000", "122208.531000", "122208.531000", "122208.531000", "122208.531000", "122208.531000", "122208.546000", "122208.546000", "122208.546000", "122208.546000", "122248.500000", "122248.500000", "122248.500000", "122248.500000", "122248.500000", "122248.500000", "122248.500000", "122248.500000", "122248.515000", "122248.515000", "122248.515000", "122248.515000", "122248.515000", "122248.515000", "122248.515000", "122248.515000", "122248.531000", "122248.531000", "122248.531000", "122248.531000", "122328.500000", "122328.500000", "122328.500000", "122328.500000", "122328.500000", "122328.500000", "122328.500000", "122328.515000", "122328.515000", "122328.515000", "122328.515000", "122328.515000", "122328.515000", "122328.515000", "122328.515000", "122328.531000", "122328.531000", "122328.531000", "122328.531000", "122328.531000", "122408.500000", "122408.500000", "122408.500000", "122408.500000", "122408.500000", "122408.500000", "122408.500000", "122408.515000", "122408.515000", "122408.515000", "122408.515000", "122408.515000", "122408.515000", "122408.515000", "122408.515000", "122408.531000", "122408.531000", "122408.531000", "122408.531000", "122408.531000", "122448.500000", "122448.500000", "122448.500000", "122448.500000", "122448.500000", "122448.500000", "122448.500000", "122448.500000", "122448.515000", "122448.515000", "122448.515000", "122448.515000", "122448.515000", "122448.515000", "122448.515000", "122448.531000", "122448.531000", "122448.531000", "122448.531000", "122448.531000", "122528.500000", "122528.500000", "122528.500000", "122528.500000", "122528.500000", "122528.500000", "122528.500000", "122528.515000", "122528.515000", "122528.515000", "122528.515000", "122528.515000", "122528.515000", "122528.515000", "122528.515000", "122528.531000", "122528.531000", "122528.531000", "122528.531000", "122528.531000", "122608.500000", "122608.500000", "122608.500000", "122608.500000", "122608.500000", "122608.500000", "122608.500000", "122608.500000", "122608.515000", "122608.515000", "122608.515000", "122608.515000", "122608.515000", "122608.515000", "122608.515000", "122608.531000", "122608.531000", "122608.531000", "122608.531000", "122608.531000", "122648.500000", "122648.500000", "122648.500000", "122648.500000", "122648.500000", "122648.500000", "122648.500000", "122648.515000", "122648.515000", "122648.515000", "122648.515000", "122648.515000", "122648.515000", "122648.515000", "122648.531000", "122648.531000", "122648.531000", "122648.531000", "122648.531000", "122648.531000", "122728.500000", "122728.500000", "122728.500000", "122728.500000", "122728.500000", "122728.500000", "122728.500000", "122728.515000", "122728.515000", "122728.515000", "122728.515000", "122728.515000", "122728.515000", "122728.515000", "122728.515000", "122728.531000", "122728.531000", "122728.531000", "122728.531000", "122728.531000", "122808.500000", "122808.500000", "122808.500000", "122808.500000", "122808.500000", "122808.500000", "122808.500000", "122808.515000", "122808.515000", "122808.515000", "122808.515000", "122808.515000", "122808.515000", "122808.515000", "122808.515000", "122808.531000", "122808.531000", "122808.531000", "122808.531000", "122808.531000", "122848.500000", "122848.500000", "122848.500000", "122848.500000", "122848.500000", "122848.500000", "122848.500000", "122848.515000", "122848.515000", "122848.515000", "122848.515000", "122848.515000", "122848.515000", "122848.515000", "122848.515000", "122848.531000", "122848.531000", "122848.531000", "122848.531000", "122848.531000", "122919.203000", "122919.218000", "122919.218000", "122919.218000", "122919.218000", "122919.218000", "122919.218000", "122919.218000", "122919.234000", "122919.234000", "122919.234000", "122919.234000", "122919.234000", "122919.234000", "122919.234000", "122919.234000"],
      "InstanceNumber": [1, 2, 3, 4, 5, 6, 7, 8, 9, 10, 11, 12, 13, 14, 15, 16, 17, 18, 19, 20, 21, 22, 23, 24, 25, 26, 27, 28, 29, 30, 31, 32, 33, 34, 35, 36, 37, 38, 39, 40, 41, 42, 43, 44, 45, 46, 47, 48, 49, 50, 51, 52, 53, 54, 55, 56, 57, 58, 59, 60, 61, 62, 63, 64, 65, 66, 67, 68, 69, 70, 71, 72, 73, 74, 75, 76, 77, 78, 79, 80, 81, 82, 83, 84, 85, 86, 87, 88, 89, 90, 91, 92, 93, 94, 95, 96, 97, 98, 99, 100, 101, 102, 103, 104, 105, 106, 107, 108, 109, 110, 111, 112, 113, 114, 115, 116, 117, 118, 119, 120, 121, 122, 123, 124, 125, 126, 127, 128, 129, 130, 131, 132, 133, 134, 135, 136, 137, 138, 139, 140, 141, 142, 143, 144, 145, 146, 147, 148, 149, 150, 151, 152, 153, 154, 155, 156, 157, 158, 159, 160, 161, 162, 163, 164, 165, 166, 167, 168, 169, 170, 171, 172, 173, 174, 175, 176, 177, 178, 179, 180, 181, 182, 183, 184, 185, 186, 187, 188, 189, 190, 191, 192, 193, 194, 195, 196, 197, 198, 199, 200, 201, 202, 203, 204, 205, 206, 207, 208, 209, 210, 211, 212, 213, 214, 215, 216, 217, 218, 219, 220, 221, 222, 223, 224, 225, 226, 227, 228, 229, 230, 231, 232, 233, 234, 235, 236, 237, 238, 239, 240],
      "LargestImagePixelValue": [1726, 1747, 1614, 1661, 1635, 1674, 1685, 1646, 1624, 1707, 1644, 1632, 1665, 1705, 1672, 1662, 1669, 1653, 1685, 1621, 1660, 1645, 1661, 1676, 1699, 1659, 1638, 1663, 1692, 1639, 1660, 1631, 1641, 1616, 1648, 1651, 1640, 1642, 1627, 1650, 1663, 1653, 1678, 1644, 1609, 1591, 1625, 1632, 1614, 1646, 1666, 1635, 1629, 1643, 1686, 1664, 1685, 1676, 1659, 1653, 1640, 1666, 1650, 1678, 1644, 1656, 1674, 1647, 1632, 1655, 1655, 1661, 1637, 1649, 1641, 1631, 1629, 1648, 1634, 1589, 1623, 1612, 1593, 1664, 1626, 1636, 1637, 1641, 1642, 1620, 1624, 1676, 1716, 1645, 1750, 1656, 1633, 1698, 1753, 1752, 1726, 1759, 1700, 1694, 1645, 1682, 1676, 1648, 1637, 1658, 1654, 1685, 1659, 1684, 1662, 1687, 1675, 1727, 1606, 1621, 1823, 1618, 1597, 1605, 1621, 1621, 1639, 1628, 1623, 1632, 1612, 1728, 1621, 1632, 1610, 1638, 1616, 1693, 1623, 1621, 1633, 1606, 1592, 1613, 1588, 1591, 1611, 1606, 1625, 1615, 1639, 1651, 1712, 1628, 1626, 1627, 1622, 1590, 1603, 1611, 1604, 1619, 1613, 1616, 1630, 1715, 1652, 1626, 1675, 1658, 1630, 1639, 1612, 1635, 1639, 1656, 1647, 1610, 1646, 1638, 1615, 1670, 1658, 1632, 1730, 1650, 1733, 1643, 1639, 1655, 1638, 1679, 1596, 1631, 1617, 1613, 1624, 1614, 1610, 1608, 1577, 1659, 1610, 1627, 1710, 1605, 1630, 1721, 1612, 1628, 1627, 1642, 1601, 1590, 1611, 1622, 1629, 1611, 1644, 1609, 1749, 1618, 1679, 1702, 1710, 1629, 1722, 1627, 1597, 1631, 1633, 1653, 1620, 1635, 1812, 1716, 1720, 1679, 1662, 1778],
      "WindowCenter": [778.0, 777.0, 779.0, 777.0, 776.0, 777.0, 776.0, 776.0, 776.0, 776.0, 776.0, 775.0, 777.0, 777.0, 778.0, 776.0, 776.0, 778.0, 777.0, 776.0, 775.0, 774.0, 777.0, 778.0, 779.0, 778.0, 779.0, 778.0, 780.0, 778.0, 780.0, 779.0, 776.0, 776.0, 776.0, 778.0, 778.0, 775.0, 774.0, 776.0, 777.0, 778.0, 776.0, 776.0, 772.0, 769.0, 770.0, 771.0, 773.0, 774.0, 774.0, 775.0, 775.0, 776.0, 777.0, 776.0, 776.0, 776.0, 776.0, 776.0, 776.0, 775.0, 776.0, 777.0, 776.0, 776.0, 776.0, 776.0, 776.0, 775.0, 775.0, 775.0, 775.0, 776.0, 776.0, 775.0, 774.0, 775.0, 775.0, 774.0, 775.0, 776.0, 776.0, 777.0, 777.0, 777.0, 776.0, 776.0, 777.0, 777.0, 778.0, 781.0, 784.0, 779.0, 788.0, 779.0, 779.0, 778.0, 780.0, 776.0, 778.0, 775.0, 777.0, 777.0, 777.0, 776.0, 776.0, 774.0, 774.0, 771.0, 771.0, 774.0, 775.0, 776.0, 778.0, 778.0, 780.0, 781.0, 776.0, 776.0, 779.0, 776.0, 776.0, 778.0, 779.0, 779.0, 778.0, 777.0, 777.0, 779.0, 778.0, 779.0, 777.0, 777.0, 776.0, 775.0, 776.0, 779.0, 777.0, 776.0, 775.0, 776.0, 777.0, 777.0, 775.0, 776.0, 776.0, 776.0, 776.0, 776.0, 775.0, 776.0, 778.0, 777.0, 778.0, 778.0, 779.0, 778.0, 777.0, 777.0, 777.0, 777.0, 778.0, 779.0, 779.0, 780.0, 779.0, 779.0, 779.0, 778.0, 778.0, 778.0, 778.0, 779.0, 779.0, 779.0, 778.0, 777.0, 777.0, 778.0, 779.0, 779.0, 778.0, 778.0, 780.0, 779.0, 780.0, 779.0, 779.0, 778.0, 778.0, 781.0, 780.0, 779.0, 777.0, 777.0, 777.0, 778.0, 778.0, 777.0, 777.0, 778.0, 778.0, 778.0, 780.0, 778.0, 780.0, 781.0, 779.0, 779.0, 779.0, 780.0, 779.0, 778.0, 778.0, 779.0, 779.0, 780.0, 780.0, 780.0, 782.0, 780.0, 783.0, 781.0, 781.0, 779.0, 780.0, 779.0, 779.0, 781.0, 782.0, 781.0, 780.0, 782.0, 793.0, 784.0, 782.0, 780.0, 781.0, 785.0],
      "WindowWidth": [1629.0, 1625.0, 1629.0, 1627.0, 1624.0, 1624.0, 1623.0, 1622.0, 1622.0, 1623.0, 1621.0, 1620.0, 1624.0, 1626.0, 1627.0, 1622.0, 1621.0, 1627.0, 1625.0, 1622.0, 1619.0, 1618.0, 1625.0, 1628.0, 1630.0, 1627.0, 1631.0, 1628.0, 1633.0, 1628.0, 1630.0, 1631.0, 1621.0, 1623.0, 1622.0, 1628.0, 1626.0, 1620.0, 1618.0, 1621.0, 1625.0, 1627.0, 1623.0, 1622.0, 1613.0, 1605.0, 1607.0, 1612.0, 1615.0, 1618.0, 1618.0, 1620.0, 1621.0, 1623.0, 1625.0, 1623.0, 1623.0, 1624.0, 1623.0, 1623.0, 1622.0, 1621.0, 1624.0, 1625.0, 1624.0, 1624.0, 1622.0, 1623.0, 1622.0, 1622.0, 1621.0, 1621.0, 1620.0, 1622.0, 1621.0, 1620.0, 1619.0, 1622.0, 1621.0, 1619.0, 1620.0, 1622.0, 1624.0, 1627.0, 1625.0, 1625.0, 1623.0, 1623.0, 1626.0, 1624.0, 1628.0, 1636.0, 1645.0, 1628.0, 1654.0, 1632.0, 1629.0, 1627.0, 1634.0, 1625.0, 1628.0, 1624.0, 1625.0, 1624.0, 1625.0, 1624.0, 1623.0, 1618.0, 1618.0, 1612.0, 1611.0, 1617.0, 1622.0, 1624.0, 1628.0, 1628.0, 1633.0, 1636.0, 1623.0, 1623.0, 1630.0, 1622.0, 1623.0, 1628.0, 1630.0, 1629.0, 1626.0, 1625.0, 1626.0, 1629.0, 1628.0, 1630.0, 1625.0, 1624.0, 1621.0, 1620.0, 1622.0, 1629.0, 1625.0, 1623.0, 1621.0, 1623.0, 1624.0, 1625.0, 1621.0, 1623.0, 1623.0, 1623.0, 1624.0, 1621.0, 1621.0, 1624.0, 1628.0, 1625.0, 1627.0, 1629.0, 1630.0, 1626.0, 1625.0, 1625.0, 1626.0, 1626.0, 1628.0, 1630.0, 1631.0, 1632.0, 1631.0, 1629.0, 1630.0, 1628.0, 1627.0, 1628.0, 1629.0, 1630.0, 1630.0, 1629.0, 1627.0, 1625.0, 1626.0, 1629.0, 1629.0, 1629.0, 1627.0, 1627.0, 1633.0, 1630.0, 1633.0, 1630.0, 1630.0, 1629.0, 1628.0, 1635.0, 1631.0, 1630.0, 1626.0, 1625.0, 1626.0, 1626.0, 1627.0, 1626.0, 1624.0, 1628.0, 1627.0, 1628.0, 1633.0, 1629.0, 1632.0, 1635.0, 1630.0, 1630.0, 1630.0, 1633.0, 1629.0, 1629.0, 1629.0, 1631.0, 1631.0, 1632.0, 1634.0, 1634.0, 1637.0, 1631.0, 1640.0, 1634.0, 1635.0, 1631.0, 1632.0, 1630.0, 1630.0, 1635.0, 1637.0, 1636.0, 1634.0, 1637.0, 1667.0, 1644.0, 1641.0, 1635.0, 1636.0, 1646.0]
    },
    "slices": {}
  }
}