{
  "AcquisitionMatrixPE": 68,
  "AcquisitionNumber": 1,
  "AcquisitionTime": "12:39:29.155000",
  "BandwidthPerPixelPhaseEncode": 31.289,
  "BaseResolution": 68,
  "CoilString": "C:HEA;HEP",
  "ConversionSoftware": "dcm2niix",
  "ConversionSoftwareVersion": "v1.0.20190902",
  "DerivedVendorReportedEchoSpacing": 0.000470002,
  "DeviceSerialNumber": "35450",
  "DwellTime": 3e-06,
  "EchoTime": 0.023,
  "EffectiveEchoSpacing": 0.000470002,
  "FlipAngle": 76,
  "ImageOrientationPatientDICOM": [0.999657, 0.00314478, 0.0259874, 3.2883e-08, 0.992757, -0.120137],
  "ImageType": [
    "ORIGINAL",
    "PRIMARY",
    "M",
    "ND",
    "MOSAIC"
],
  "ImagingFrequency": 123.219,
  "InPlanePhaseEncodingDirectionDICOM": "COL",
  "InstitutionAddress": "Univeristy_Ave._197_Newark_North_East_US_07102-1814",
  "InstitutionName": "RUBIC",
  "InstitutionalDepartmentName": "Department",
  "MRAcquisitionType": "2D",
  "MagneticFieldStrength": 3,
  "Manufacturer": "Siemens",
  "ManufacturersModelName": "TrioTim",
  "Modality": "MR",
  "PartialFourier": 1,
  "PatientPosition": "HFS",
  "PercentPhaseFOV": 100,
  "PhaseEncodingDirection": "j-",
  "PhaseEncodingSteps": 68,
  "PhaseResolution": 1,
  "PixelBandwidth": 2451,
  "ProcedureStepDescription": "Krekelberg_David",
  "ProtocolName": "ep2d_bold_RestEPI_4",
  "PulseSequenceDetails": "%SiemensSeq%_ep2d_bold",
  "ReceiveCoilName": "HeadMatrix",
  "ReconMatrixPE": 68,
  "RepetitionTime": 2,
  "SAR": 0.190741,
  "ScanOptions": "FS",
  "ScanningSequence": "EP",
  "SequenceName": "_epfid2d1_68",
  "SequenceVariant": "SK",
  "SeriesDescription": "ep2d_bold_RestEPI_4",
  "SeriesNumber": 11,
  "ShimSetting": [1964, -641, -7571, 669, 57, 15, 77, -203],
  "SliceThickness": 2.5,
  "SliceTiming": [1.95, 1.895, 1.84, 1.785, 1.7275, 1.6725, 1.6175, 1.56, 1.505, 1.45, 1.3925, 1.3375, 1.2825, 1.225, 1.17, 1.115, 1.06, 1.0025, 0.9475, 0.8925, 0.835, 0.78, 0.725, 0.6675, 0.6125, 0.5575, 0.5025, 0.445, 0.39, 0.335, 0.2775, 0.2225, 0.1675, 0.11, 0.055, 0],
  "SoftwareVersions": "syngo_MR_B19",
  "SpacingBetweenSlices": 3,
  "StationName": "MRC35450",
  "TaskName": "rest",
  "TotalReadoutTime": 0.0314901,
  "TxRefAmp": 354.672,
  "dcmmeta_affine": [
    [-2.998971939086914, 9.864903205425435e-08, 0.07853084057569504, 97.87889099121094],
    [-0.009434349834918976, 2.978271961212158, -0.36028704047203064, -68.6148681640625],
    [0.07796207815408707, 0.36041054129600525, 2.9772515296936035, -63.93480682373047],
    [0.0, 0.0, 0.0, 1.0]
],
  "dcmmeta_reorient_transform": [
    [0.0, -1.0, 0.0, 67.0],
    [1.0, 0.0, 0.0, 0.0],
    [0.0, 0.0, 1.0, 0.0],
    [0.0, 0.0, 0.0, 1.0]
],
  "dcmmeta_shape": [68, 68, 36, 240],
  "dcmmeta_slice_dim": 2,
  "dcmmeta_version": 0.6,
  "global": {
    "const": {
      "AcquisitionMatrix": [68, 0, 0, 68],
      "AngioFlag": "N",
      "BitsAllocated": 16,
      "BitsStored": 12,
      "Columns": 408,
      "EchoNumbers": 1,
      "EchoTime": 23.0,
      "EchoTrainLength": 1,
      "FlipAngle": 76.0,
      "HighBit": 11,
      "ImageOrientationPatient": [0.99965732500203, 0.00314478323318, 0.02598736054692, 3.2883011e-08, 0.99275734115154, -0.1201368452629],
      "ImagePositionPatient": [-607.70414856474, -638.83943975358, 8.2289359401263],
      "ImageType": [
        "ORIGINAL",
        "PRIMARY",
        "M",
        "ND",
        "MOSAIC"
],
      "ImagedNucleus": "1H",
      "ImagingFrequency": 123.218547,
      "InPlanePhaseEncodingDirection": "COL",
      "MRAcquisitionType": "2D",
      "MagneticFieldStrength": 3.0,
      "Manufacturer": "SIEMENS",
      "ManufacturerModelName": "TrioTim",
      "Modality": "MR",
      "NumberOfAverages": 1.0,
      "NumberOfPhaseEncodingSteps": 68,
      "PercentPhaseFieldOfView": 100.0,
      "PercentSampling": 100.0,
      "PerformedProcedureStepStartTime": "113054.359000",
      "PhotometricInterpretation": "MONOCHROME2",
      "PixelBandwidth": 2451.0,
      "PixelRepresentation": 0,
      "PixelSpacing": [3.0, 3.0],
      "ProtocolName": "ep2d_bold_RestEPI_4",
      "RepetitionTime": 2000.0,
      "Rows": 408,
      "SAR": 0.19074052894558,
      "SamplesPerPixel": 1,
      "ScanOptions": "FS",
      "ScanningSequence": "EP",
      "SequenceName": "*epfid2d1_68",
      "SequenceVariant": "SK",
      "SeriesDescription": "ep2d_bold_RestEPI_4",
      "SeriesNumber": 11,
      "SeriesTime": "123939.281000",
      "SliceLocation": -52.647479188402,
      "SliceThickness": 2.5,
      "SmallestImagePixelValue": 0,
      "SoftwareVersions": "syngo MR B19",
      "SpacingBetweenSlices": 2.9999999914125,
      "SpecificCharacterSet": "ISO_IR 100",
      "StudyID": "1",
      "StudyTime": "113054.312000",
      "TransmitCoilName": "Body",
      "VariableFlipAngleFlag": "N",
      "WindowCenterWidthExplanation": "Algo1",
      "dBdt": 0.0},
    "slices": {}
  },
  "time": {
    "samples": {
      "AcquisitionNumber": [1, 2, 3, 4, 5, 6, 7, 8, 9, 10, 11, 12, 13, 14, 15, 16, 17, 18, 19, 20, 21, 22, 23, 24, 25, 26, 27, 28, 29, 30, 31, 32, 33, 34, 35, 36, 37, 38, 39, 40, 41, 42, 43, 44, 45, 46, 47, 48, 49, 50, 51, 52, 53, 54, 55, 56, 57, 58, 59, 60, 61, 62, 63, 64, 65, 66, 67, 68, 69, 70, 71, 72, 73, 74, 75, 76, 77, 78, 79, 80, 81, 82, 83, 84, 85, 86, 87, 88, 89, 90, 91, 92, 93, 94, 95, 96, 97, 98, 99, 100, 101, 102, 103, 104, 105, 106, 107, 108, 109, 110, 111, 112, 113, 114, 115, 116, 117, 118, 119, 120, 121, 122, 123, 124, 125, 126, 127, 128, 129, 130, 131, 132, 133, 134, 135, 136, 137, 138, 139, 140, 141, 142, 143, 144, 145, 146, 147, 148, 149, 150, 151, 152, 153, 154, 155, 156, 157, 158, 159, 160, 161, 162, 163, 164, 165, 166, 167, 168, 169, 170, 171, 172, 173, 174, 175, 176, 177, 178, 179, 180, 181, 182, 183, 184, 185, 186, 187, 188, 189, 190, 191, 192, 193, 194, 195, 196, 197, 198, 199, 200, 201, 202, 203, 204, 205, 206, 207, 208, 209, 210, 211, 212, 213, 214, 215, 216, 217, 218, 219, 220, 221, 222, 223, 224, 225, 226, 227, 228, 229, 230, 231, 232, 233, 234, 235, 236, 237, 238, 239, 240],
      "AcquisitionTime": ["123929.155000", "123931.165000", "123933.172500", "123935.180000", "123937.187500", "123939.197500", "123941.205000", "123943.212500", "123945.220000", "123947.227500", "123949.237500", "123951.245000", "123953.252500", "123955.260000", "123957.267500", "123959.277500", "124001.285000", "124003.292500", "124005.300000", "124007.307500", "124009.317500", "124011.325000", "124013.332500", "124015.340000", "124017.350000", "124019.357500", "124021.365000", "124023.372500", "124025.380000", "124027.390000", "124029.397500", "124031.405000", "124033.412500", "124035.420000", "124037.430000", "124039.437500", "124041.445000", "124043.452500", "124045.462500", "124047.470000", "124049.477500", "124051.485000", "124053.492500", "124055.502500", "124057.510000", "124059.517500", "124101.525000", "124103.532500", "124105.542500", "124107.550000", "124109.557500", "124111.565000", "124113.575000", "124115.582500", "124117.590000", "124119.597500", "124121.605000", "124123.615000", "124125.622500", "124127.630000", "124129.637500", "124131.645000", "124133.655000", "124135.662500", "124137.670000", "124139.677500", "124141.685000", "124143.695000", "124145.702500", "124147.710000", "124149.717500", "124151.727500", "124153.735000", "124155.742500", "124157.750000", "124159.757500", "124201.767500", "124203.775000", "124205.782500", "124207.790000", "124209.797500", "124211.807500", "124213.815000", "124215.822500", "124217.830000", "124219.840000", "124221.847500", "124223.855000", "124225.862500", "124227.870000", "124229.880000", "124231.887500", "124233.895000", "124235.902500", "124237.910000", "124239.920000", "124241.927500", "124243.935000", "124245.942500", "124247.952500", "124249.960000", "124251.967500", "124253.975000", "124255.982500", "124257.992500", "124300.000000", "124302.007500", "124304.015000", "124306.022500", "124308.032500", "124310.040000", "124312.047500", "124314.055000", "124316.062500", "124318.072500", "124320.080000", "124322.087500", "124324.095000", "124326.105000", "124328.112500", "124330.120000", "124332.127500", "124334.135000", "124336.145000", "124338.152500", "124340.160000", "124342.167500", "124344.175000", "124346.185000", "124348.192500", "124350.200000", "124352.207500", "124354.217500", "124356.225000", "124358.232500", "124400.240000", "124402.247500", "124404.257500", "124406.265000", "124408.272500", "124410.280000", "124412.287500", "124414.297500", "124416.305000", "124418.312500", "124420.320000", "124422.330000", "124424.337500", "124426.345000", "124428.352500", "124430.360000", "124432.370000", "124434.377500", "124436.385000", "124438.392500", "124440.400000", "124442.410000", "124444.417500", "124446.425000", "124448.432500", "124450.440000", "124452.450000", "124454.457500", "124456.465000", "124458.472500", "124500.482500", "124502.490000", "124504.497500", "124506.505000", "124508.512500", "124510.522500", "124512.530000", "124514.537500", "124516.545000", "124518.552500", "124520.562500", "124522.570000", "124524.577500", "124526.585000", "124528.595000", "124530.602500", "124532.610000", "124534.617500", "124536.625000", "124538.635000", "124540.642500", "124542.650000", "124544.657500", "124546.665000", "124548.675000", "124550.682500", "124552.690000", "124554.697500", "124556.707500", "124558.715000", "124600.722500", "124602.730000", "124604.737500", "124606.747500", "124608.755000", "124610.762500", "124612.770000", "124614.777500", "124616.787500", "124618.795000", "124620.802500", "124622.810000", "124624.820000", "124626.827500", "124628.835000", "124630.842500", "124632.850000", "124634.860000", "124636.867500", "124638.875000", "124640.882500", "124642.890000", "124644.900000", "124646.907500", "124648.915000", "124650.922500", "124652.930000", "124654.940000", "124656.947500", "124658.955000", "124700.962500", "124702.972500", "124704.980000", "124706.987500", "124708.995000", "124711.002500", "124713.012500", "124715.020000", "124717.027500", "124719.035000", "124721.042500", "124723.052500", "124725.060000", "124727.067500", "124729.075000"],
      "ContentTime": ["123939.281000", "123939.281000", "123939.281000", "123939.281000", "123939.281000", "124019.281000", "124019.281000", "124019.281000", "124019.281000", "124019.281000", "124019.281000", "124019.281000", "124019.296000", "124019.296000", "124019.296000", "124019.296000", "124019.296000", "124019.296000", "124019.296000", "124019.296000", "124019.312000", "124019.312000", "124019.312000", "124019.312000", "124019.312000", "124059.281000", "124059.281000", "124059.281000", "124059.281000", "124059.281000", "124059.281000", "124059.281000", "124059.296000", "124059.296000", "124059.296000", "124059.296000", "124059.296000", "124059.296000", "124059.296000", "124059.296000", "124059.312000", "124059.312000", "124059.312000", "124059.312000", "124059.312000", "124139.281000", "124139.281000", "124139.281000", "124139.281000", "124139.281000", "124139.281000", "124139.281000", "124139.296000", "124139.296000", "124139.296000", "124139.296000", "124139.296000", "124139.296000", "124139.296000", "124139.296000", "124139.312000", "124139.312000", "124139.312000", "124139.312000", "124139.312000", "124219.281000", "124219.281000", "124219.281000", "124219.281000", "124219.281000", "124219.281000", "124219.281000", "124219.296000", "124219.296000", "124219.296000", "124219.296000", "124219.296000", "124219.296000", "124219.296000", "124219.296000", "124219.312000", "124219.312000", "124219.312000", "124219.312000", "124219.312000", "124259.281000", "124259.281000", "124259.281000", "124259.281000", "124259.281000", "124259.281000", "124259.281000", "124259.281000", "124259.296000", "124259.296000", "124259.296000", "124259.296000", "124259.296000", "124259.296000", "124259.296000", "124259.312000", "124259.312000", "124259.312000", "124259.312000", "124259.312000", "124339.281000", "124339.281000", "124339.281000", "124339.281000", "124339.281000", "124339.281000", "124339.281000", "124339.296000", "124339.296000", "124339.312000", "124339.312000", "124339.312000", "124339.312000", "124339.312000", "124339.312000", "124339.312000", "124339.328000", "124339.328000", "124339.328000", "124339.328000", "124419.281000", "124419.281000", "124419.281000", "124419.281000", "124419.281000", "124419.281000", "124419.281000", "124419.281000", "124419.296000", "124419.296000", "124419.296000", "124419.296000", "124419.296000", "124419.296000", "124419.296000", "124419.312000", "124419.312000", "124419.312000", "124419.312000", "124419.312000", "124459.281000", "124459.281000", "124459.281000", "124459.281000", "124459.281000", "124459.281000", "124459.281000", "124459.281000", "124459.296000", "124459.296000", "124459.296000", "124459.296000", "124459.296000", "124459.296000", "124459.296000", "124459.312000", "124459.312000", "124459.312000", "124459.312000", "124459.312000", "124539.281000", "124539.281000", "124539.281000", "124539.281000", "124539.281000", "124539.281000", "124539.281000", "124539.296000", "124539.296000", "124539.296000", "124539.296000", "124539.296000", "124539.296000", "124539.296000", "124539.296000", "124539.312000", "124539.312000", "124539.312000", "124539.312000", "124539.312000", "124619.281000", "124619.281000", "124619.281000", "124619.281000", "124619.281000", "124619.281000", "124619.281000", "124619.281000", "124619.296000", "124619.296000", "124619.296000", "124619.296000", "124619.296000", "124619.296000", "124619.296000", "124619.312000", "124619.312000", "124619.312000", "124619.312000", "124619.312000", "124659.281000", "124659.281000", "124659.281000", "124659.281000", "124659.281000", "124659.281000", "124659.281000", "124659.281000", "124659.296000", "124659.296000", "124659.296000", "124659.296000", "124659.296000", "124659.296000", "124659.296000", "124659.312000", "124659.312000", "124659.312000", "124659.312000", "124659.312000", "124728.750000", "124728.750000", "124728.750000", "124728.750000", "124728.765000", "124728.765000", "124728.765000", "124728.765000", "124728.765000", "124728.765000", "124728.765000", "124728.781000", "124728.781000", "124728.781000", "124728.781000"],
      "InstanceCreationTime": ["123939.281000", "123939.281000", "123939.281000", "123939.281000", "123939.281000", "124019.281000", "124019.281000", "124019.281000", "124019.281000", "124019.281000", "124019.281000", "124019.281000", "124019.296000", "124019.296000", "124019.296000", "124019.296000", "124019.296000", "124019.296000", "124019.296000", "124019.296000", "124019.312000", "124019.312000", "124019.312000", "124019.312000", "124019.312000", "124059.281000", "124059.281000", "124059.281000", "124059.281000", "124059.281000", "124059.281000", "124059.281000", "124059.296000", "124059.296000", "124059.296000", "124059.296000", "124059.296000", "124059.296000", "124059.296000", "124059.296000", "124059.312000", "124059.312000", "124059.312000", "124059.312000", "124059.312000", "124139.281000", "124139.281000", "124139.281000", "124139.281000", "124139.281000", "124139.281000", "124139.281000", "124139.296000", "124139.296000", "124139.296000", "124139.296000", "124139.296000", "124139.296000", "124139.296000", "124139.296000", "124139.312000", "124139.312000", "124139.312000", "124139.312000", "124139.312000", "124219.281000", "124219.281000", "124219.281000", "124219.281000", "124219.281000", "124219.281000", "124219.281000", "124219.296000", "124219.296000", "124219.296000", "124219.296000", "124219.296000", "124219.296000", "124219.296000", "124219.296000", "124219.312000", "124219.312000", "124219.312000", "124219.312000", "124219.312000", "124259.281000", "124259.281000", "124259.281000", "124259.281000", "124259.281000", "124259.281000", "124259.281000", "124259.281000", "124259.296000", "124259.296000", "124259.296000", "124259.296000", "124259.296000", "124259.296000", "124259.296000", "124259.312000", "124259.312000", "124259.312000", "124259.312000", "124259.312000", "124339.281000", "124339.281000", "124339.281000", "124339.281000", "124339.281000", "124339.281000", "124339.281000", "124339.296000", "124339.296000", "124339.312000", "124339.312000", "124339.312000", "124339.312000", "124339.312000", "124339.312000", "124339.312000", "124339.328000", "124339.328000", "124339.328000", "124339.328000", "124419.281000", "124419.281000", "124419.281000", "124419.281000", "124419.281000", "124419.281000", "124419.281000", "124419.281000", "124419.296000", "124419.296000", "124419.296000", "124419.296000", "124419.296000", "124419.296000", "124419.296000", "124419.312000", "124419.312000", "124419.312000", "124419.312000", "124419.312000", "124459.281000", "124459.281000", "124459.281000", "124459.281000", "124459.281000", "124459.281000", "124459.281000", "124459.281000", "124459.296000", "124459.296000", "124459.296000", "124459.296000", "124459.296000", "124459.296000", "124459.296000", "124459.312000", "124459.312000", "124459.312000", "124459.312000", "124459.312000", "124539.281000", "124539.281000", "124539.281000", "124539.281000", "124539.281000", "124539.281000", "124539.281000", "124539.296000", "124539.296000", "124539.296000", "124539.296000", "124539.296000", "124539.296000", "124539.296000", "124539.296000", "124539.312000", "124539.312000", "124539.312000", "124539.312000", "124539.312000", "124619.281000", "124619.281000", "124619.281000", "124619.281000", "124619.281000", "124619.281000", "124619.281000", "124619.281000", "124619.296000", "124619.296000", "124619.296000", "124619.296000", "124619.296000", "124619.296000", "124619.296000", "124619.312000", "124619.312000", "124619.312000", "124619.312000", "124619.312000", "124659.281000", "124659.281000", "124659.281000", "124659.281000", "124659.281000", "124659.281000", "124659.281000", "124659.281000", "124659.296000", "124659.296000", "124659.296000", "124659.296000", "124659.296000", "124659.296000", "124659.296000", "124659.312000", "124659.312000", "124659.312000", "124659.312000", "124659.312000", "124728.750000", "124728.750000", "124728.750000", "124728.750000", "124728.765000", "124728.765000", "124728.765000", "124728.765000", "124728.765000", "124728.765000", "124728.765000", "124728.781000", "124728.781000", "124728.781000", "124728.781000"],
      "InstanceNumber": [1, 2, 3, 4, 5, 6, 7, 8, 9, 10, 11, 12, 13, 14, 15, 16, 17, 18, 19, 20, 21, 22, 23, 24, 25, 26, 27, 28, 29, 30, 31, 32, 33, 34, 35, 36, 37, 38, 39, 40, 41, 42, 43, 44, 45, 46, 47, 48, 49, 50, 51, 52, 53, 54, 55, 56, 57, 58, 59, 60, 61, 62, 63, 64, 65, 66, 67, 68, 69, 70, 71, 72, 73, 74, 75, 76, 77, 78, 79, 80, 81, 82, 83, 84, 85, 86, 87, 88, 89, 90, 91, 92, 93, 94, 95, 96, 97, 98, 99, 100, 101, 102, 103, 104, 105, 106, 107, 108, 109, 110, 111, 112, 113, 114, 115, 116, 117, 118, 119, 120, 121, 122, 123, 124, 125, 126, 127, 128, 129, 130, 131, 132, 133, 134, 135, 136, 137, 138, 139, 140, 141, 142, 143, 144, 145, 146, 147, 148, 149, 150, 151, 152, 153, 154, 155, 156, 157, 158, 159, 160, 161, 162, 163, 164, 165, 166, 167, 168, 169, 170, 171, 172, 173, 174, 175, 176, 177, 178, 179, 180, 181, 182, 183, 184, 185, 186, 187, 188, 189, 190, 191, 192, 193, 194, 195, 196, 197, 198, 199, 200, 201, 202, 203, 204, 205, 206, 207, 208, 209, 210, 211, 212, 213, 214, 215, 216, 217, 218, 219, 220, 221, 222, 223, 224, 225, 226, 227, 228, 229, 230, 231, 232, 233, 234, 235, 236, 237, 238, 239, 240],
      "LargestImagePixelValue": [1830, 1675, 1650, 1655, 1701, 1667, 1740, 1665, 1671, 1629, 1636, 1603, 1635, 1612, 1673, 1795, 1722, 1752, 1690, 1652, 1689, 1635, 1607, 1597, 1635, 1630, 1595, 1621, 1613, 1611, 1603, 1747, 1619, 1623, 1618, 1697, 1621, 1630, 1638, 1636, 1650, 1636, 1647, 1619, 1647, 1638, 1650, 1622, 1618, 1613, 1630, 1732, 1632, 1620, 1694, 1691, 1631, 1648, 1659, 1707, 1600, 1734, 1651, 1661, 1659, 1659, 1679, 1687, 1824, 1617, 1617, 1573, 1597, 1598, 1584, 1653, 1643, 1613, 1632, 1896, 1637, 1694, 1677, 1674, 1652, 1702, 1662, 1678, 1640, 1656, 1652, 1634, 1644, 1673, 1668, 1630, 1774, 1661, 1731, 1774, 1614, 1651, 1612, 1647, 1651, 1635, 1624, 1640, 1600, 1617, 1600, 1731, 1635, 1625, 1608, 1626, 1633, 1667, 1675, 1642, 1619, 1599, 1628, 1639, 1640, 1619, 1637, 1620, 1630, 1647, 1626, 1646, 1649, 1663, 1872, 1624, 1638, 1659, 1642, 1637, 1659, 1668, 1664, 1819, 1842, 1659, 1739, 1618, 1617, 1644, 1677, 1627, 1649, 1667, 1642, 1613, 1660, 1635, 1631, 1653, 1667, 1640, 1650, 1693, 1664, 1661, 1667, 1650, 1637, 1638, 1646, 1652, 1618, 1660, 1661, 1680, 1638, 1660, 1648, 1658, 1664, 1819, 1664, 1718, 1716, 1657, 1628, 1773, 1672, 1581, 1628, 1620, 1634, 1638, 1619, 1603, 1665, 1635, 1694, 1685, 1662, 1693, 1729, 1774, 1663, 1661, 1661, 1723, 1678, 1651, 1676, 1717, 1674, 1733, 1675, 1667, 1664, 1671, 1678, 1633, 1635, 1665, 1663, 1653, 1637, 1666, 1880, 1635, 1865, 1657, 1811, 1759, 1631, 1613, 1650, 1680, 1640, 1676, 1635, 1620],
      "WindowCenter": [777.0, 778.0, 775.0, 771.0, 767.0, 767.0, 771.0, 770.0, 771.0, 768.0, 768.0, 768.0, 770.0, 769.0, 777.0, 782.0, 781.0, 778.0, 775.0, 777.0, 781.0, 772.0, 772.0, 770.0, 771.0, 769.0, 768.0, 768.0, 769.0, 771.0, 772.0, 773.0, 772.0, 771.0, 770.0, 773.0, 770.0, 771.0, 771.0, 770.0, 771.0, 773.0, 773.0, 772.0, 772.0, 772.0, 772.0, 771.0, 771.0, 771.0, 771.0, 772.0, 770.0, 772.0, 778.0, 780.0, 777.0, 776.0, 775.0, 777.0, 768.0, 770.0, 776.0, 774.0, 773.0, 775.0, 778.0, 770.0, 774.0, 768.0, 767.0, 766.0, 767.0, 767.0, 767.0, 771.0, 773.0, 772.0, 772.0, 775.0, 773.0, 774.0, 776.0, 776.0, 776.0, 778.0, 774.0, 774.0, 771.0, 772.0, 773.0, 773.0, 774.0, 773.0, 773.0, 772.0, 783.0, 776.0, 783.0, 773.0, 768.0, 771.0, 771.0, 773.0, 772.0, 771.0, 769.0, 771.0, 769.0, 769.0, 767.0, 776.0, 768.0, 770.0, 768.0, 768.0, 770.0, 774.0, 772.0, 770.0, 769.0, 768.0, 769.0, 769.0, 769.0, 769.0, 770.0, 771.0, 770.0, 770.0, 769.0, 768.0, 770.0, 771.0, 773.0, 768.0, 768.0, 770.0, 771.0, 770.0, 771.0, 772.0, 775.0, 780.0, 778.0, 777.0, 770.0, 768.0, 766.0, 766.0, 769.0, 766.0, 768.0, 770.0, 770.0, 765.0, 766.0, 766.0, 763.0, 764.0, 766.0, 766.0, 767.0, 768.0, 770.0, 769.0, 767.0, 767.0, 765.0, 763.0, 763.0, 768.0, 768.0, 770.0, 771.0, 772.0, 770.0, 768.0, 770.0, 769.0, 771.0, 779.0, 771.0, 768.0, 770.0, 767.0, 764.0, 764.0, 757.0, 759.0, 762.0, 761.0, 766.0, 765.0, 764.0, 765.0, 768.0, 768.0, 771.0, 770.0, 771.0, 772.0, 776.0, 778.0, 776.0, 781.0, 777.0, 782.0, 776.0, 776.0, 776.0, 777.0, 778.0, 780.0, 778.0, 777.0, 777.0, 777.0, 778.0, 777.0, 777.0, 778.0, 777.0, 778.0, 777.0, 777.0, 778.0, 776.0, 779.0, 778.0, 781.0, 788.0, 781.0, 778.0, 780.0, 784.0, 776.0, 780.0, 774.0, 773.0],
      "WindowWidth": [1631.0, 1629.0, 1625.0, 1614.0, 1605.0, 1605.0, 1617.0, 1613.0, 1615.0, 1607.0, 1607.0, 1607.0, 1611.0, 1609.0, 1631.0, 1641.0, 1635.0, 1627.0, 1621.0, 1624.0, 1640.0, 1618.0, 1615.0, 1610.0, 1613.0, 1610.0, 1606.0, 1605.0, 1609.0, 1614.0, 1616.0, 1620.0, 1616.0, 1613.0, 1611.0, 1621.0, 1612.0, 1613.0, 1614.0, 1612.0, 1614.0, 1618.0, 1619.0, 1617.0, 1617.0, 1617.0, 1618.0, 1614.0, 1615.0, 1614.0, 1613.0, 1616.0, 1613.0, 1616.0, 1632.0, 1637.0, 1630.0, 1625.0, 1623.0, 1630.0, 1607.0, 1615.0, 1626.0, 1623.0, 1623.0, 1625.0, 1632.0, 1613.0, 1626.0, 1609.0, 1605.0, 1603.0, 1606.0, 1606.0, 1606.0, 1614.0, 1621.0, 1616.0, 1617.0, 1626.0, 1619.0, 1621.0, 1627.0, 1628.0, 1627.0, 1632.0, 1623.0, 1624.0, 1616.0, 1618.0, 1621.0, 1621.0, 1622.0, 1622.0, 1620.0, 1620.0, 1647.0, 1631.0, 1646.0, 1620.0, 1608.0, 1615.0, 1613.0, 1618.0, 1617.0, 1613.0, 1608.0, 1614.0, 1608.0, 1608.0, 1605.0, 1625.0, 1609.0, 1612.0, 1607.0, 1607.0, 1611.0, 1626.0, 1617.0, 1614.0, 1610.0, 1607.0, 1609.0, 1611.0, 1612.0, 1612.0, 1615.0, 1614.0, 1614.0, 1613.0, 1610.0, 1610.0, 1613.0, 1617.0, 1621.0, 1609.0, 1609.0, 1612.0, 1615.0, 1614.0, 1615.0, 1618.0, 1625.0, 1642.0, 1634.0, 1628.0, 1612.0, 1605.0, 1599.0, 1600.0, 1607.0, 1601.0, 1605.0, 1611.0, 1609.0, 1598.0, 1600.0, 1599.0, 1594.0, 1597.0, 1601.0, 1600.0, 1602.0, 1606.0, 1612.0, 1607.0, 1604.0, 1604.0, 1598.0, 1592.0, 1594.0, 1605.0, 1604.0, 1610.0, 1613.0, 1615.0, 1609.0, 1606.0, 1610.0, 1608.0, 1612.0, 1636.0, 1613.0, 1605.0, 1611.0, 1600.0, 1592.0, 1594.0, 1579.0, 1585.0, 1590.0, 1588.0, 1600.0, 1597.0, 1596.0, 1596.0, 1606.0, 1604.0, 1613.0, 1609.0, 1611.0, 1614.0, 1623.0, 1637.0, 1627.0, 1636.0, 1627.0, 1641.0, 1625.0, 1626.0, 1626.0, 1629.0, 1631.0, 1637.0, 1631.0, 1629.0, 1628.0, 1630.0, 1631.0, 1627.0, 1628.0, 1631.0, 1629.0, 1630.0, 1627.0, 1628.0, 1632.0, 1626.0, 1634.0, 1632.0, 1640.0, 1655.0, 1639.0, 1629.0, 1634.0, 1649.0, 1627.0, 1637.0, 1621.0, 1619.0]
    },
    "slices": {}
  }
}