{
  "aor": 0.0006166666666666666,
  "aqi": 0.03298690083333333,
  "bids_meta": {
    "AcquisitionMatrixPE": 68,
    "AcquisitionNumber": 1,
    "AcquisitionTime": "09:51:56.587500",
    "BandwidthPerPixelPhaseEncode": 31.289,
    "BaseResolution": 68,
    "CogAtlasID": "TODO",
    "CoilString": "C:HEA;HEP",
    "ConversionSoftware": "dcm2niix",
    "ConversionSoftwareVersion": "v1.0.20190902",
    "DerivedVendorReportedEchoSpacing": 0.000470002,
    "DeviceSerialNumber": "35450",
    "DwellTime": 3e-06,
    "EchoTime": 0.023,
    "EffectiveEchoSpacing": 0.000470002,
    "FlipAngle": 76,
    "ImageOrientationPatientDICOM": [
      1,
      0,
      0,
      0,
      0.991894,
      -0.127065
    ],
    "ImageType": [
      "ORIGINAL",
      "PRIMARY",
      "M",
      "ND",
      "MOSAIC"
    ],
    "ImagingFrequency": 123.219,
    "InPlanePhaseEncodingDirectionDICOM": "COL",
    "InstitutionAddress": "Univeristy_Ave._197_Newark_North_East_US_07102-1814",
    "InstitutionName": "RUBIC",
    "InstitutionalDepartmentName": "Department",
    "MRAcquisitionType": "2D",
    "MagneticFieldStrength": 3,
    "Manufacturer": "Siemens",
    "ManufacturersModelName": "TrioTim",
    "Modality": "MR",
    "PartialFourier": 1,
    "PatientPosition": "HFS",
    "PercentPhaseFOV": 100,
    "PhaseEncodingDirection": "j-",
    "PhaseEncodingSteps": 68,
    "PhaseResolution": 1,
    "PixelBandwidth": 2451,
    "ProcedureStepDescription": "Krekelberg_David",
    "ProtocolName": "ep2d_bold_RestEPI",
    "PulseSequenceDetails": "%SiemensSeq%_ep2d_bold",
    "ReceiveCoilName": "HeadMatrix",
    "ReconMatrixPE": 68,
    "RepetitionTime": 2,
    "SAR": 0.15749,
    "ScanOptions": "FS",
    "ScanningSequence": "EP",
    "SequenceName": "_epfid2d1_68",
    "SequenceVariant": "SK",
    "SeriesDescription": "ep2d_bold_RestEPI",
    "SeriesNumber": 9,
    "ShimSetting": [
      1969,
      -704,
      -7668,
      586,
      177,
      -87,
      -24,
      52
    ],
    "SliceThickness": 2.5,
    "SliceTiming": [
      1.9525,
      1.8975,
      1.84,
      1.785,
      1.73,
      1.6725,
      1.6175,
      1.5625,
      1.5075,
      1.45,
      1.395,
      1.34,
      1.2825,
      1.2275,
      1.1725,
      1.115,
      1.06,
      1.005,
      0.95,
      0.8925,
      0.8375,
      0.7825,
      0.725,
      0.67,
      0.615,
      0.5575,
      0.5025,
      0.4475,
      0.39,
      0.335,
      0.28,
      0.225,
      0.1675,
      0.1125,
      0.0575,
      0
    ],
    "SoftwareVersions": "syngo_MR_B19",
    "SpacingBetweenSlices": 3,
    "StationName": "MRC35450",
    "TaskName": "rest",
    "TotalReadoutTime": 0.0314901,
    "TxRefAmp": 306.343,
    "dataset": "<unset>",
    "dcmmeta_affine": [
      [
        -3.0,
        0.0,
        0.0,
        97.93220520019531
      ],
      [
        0.0,
        2.9756832122802734,
        -0.3811938464641571,
        -86.1029281616211
      ],
      [
        0.0,
        0.3811938464641571,
        2.9756834506988525,
        -40.92504119873047
      ],
      [
        0.0,
        0.0,
        0.0,
        1.0
      ]
    ],
    "dcmmeta_reorient_transform": [
      [
        0.0,
        -1.0,
        0.0,
        67.0
      ],
      [
        1.0,
        0.0,
        0.0,
        0.0
      ],
      [
        0.0,
        0.0,
        1.0,
        0.0
      ],
      [
        0.0,
        0.0,
        0.0,
        1.0
      ]
    ],
    "dcmmeta_shape": [
      68,
      68,
      36,
      240
    ],
    "dcmmeta_slice_dim": 2,
    "dcmmeta_version": 0.6,
    "global": {
      "const": {
        "AcquisitionMatrix": [
          68,
          0,
          0,
          68
        ],
        "AngioFlag": "N",
        "BitsAllocated": 16,
        "BitsStored": 12,
        "Columns": 408,
        "EchoNumbers": 1,
        "EchoTime": 23.0,
        "EchoTrainLength": 1,
        "FlipAngle": 76.0,
        "HighBit": 11,
        "ImageOrientationPatient": [
          1.0,
          0.0,
          0.0,
          0.0,
          0.99189444198249,
          -0.1270646133439
        ],
        "ImagePositionPatient": [
          -607.93220329285,
          -619.13401919793,
          49.417899369299
        ],
        "ImageType": [
          "ORIGINAL",
          "PRIMARY",
          "M",
          "ND",
          "MOSAIC"
        ],
        "ImagedNucleus": "1H",
        "ImagingFrequency": 123.218674,
        "InPlanePhaseEncodingDirection": "COL",
        "MRAcquisitionType": "2D",
        "MagneticFieldStrength": 3.0,
        "Manufacturer": "SIEMENS",
        "ManufacturerModelName": "TrioTim",
        "Modality": "MR",
        "NumberOfAverages": 1.0,
        "NumberOfPhaseEncodingSteps": 68,
        "PercentPhaseFieldOfView": 100.0,
        "PercentSampling": 100.0,
        "PerformedProcedureStepStartTime": "085940.593000",
        "PhotometricInterpretation": "MONOCHROME2",
        "PixelBandwidth": 2451.0,
        "PixelRepresentation": 0,
        "PixelSpacing": [
          3.0,
          3.0
        ],
        "ProtocolName": "ep2d_bold_RestEPI",
        "RepetitionTime": 2000.0,
        "Rows": 408,
        "SAR": 0.15749026286731,
        "SamplesPerPixel": 1,
        "ScanOptions": "FS",
        "ScanningSequence": "EP",
        "SequenceName": "*epfid2d1_68",
        "SequenceVariant": "SK",
        "SeriesDescription": "ep2d_bold_RestEPI",
        "SeriesNumber": 9,
        "SeriesTime": "095245.984000",
        "SliceLocation": -29.652685038608,
        "SliceThickness": 2.5,
        "SmallestImagePixelValue": 0,
        "SoftwareVersions": "syngo MR B19",
        "SpacingBetweenSlices": 3.0000001007169,
        "SpecificCharacterSet": "ISO_IR 100",
        "StudyID": "1",
        "StudyTime": "085940.562000",
        "TransmitCoilName": "Body",
        "VariableFlipAngleFlag": "N",
        "WindowCenterWidthExplanation": "Algo1",
        "dBdt": 0.0
      },
      "slices": {}
    },
    "modality": "bold",
    "run_id": 1,
    "subject_id": "207",
    "task_id": "rest",
    "time": {
      "samples": {
        "AcquisitionNumber": [
          1,
          2,
          3,
          4,
          5,
          6,
          7,
          8,
          9,
          10,
          11,
          12,
          13,
          14,
          15,
          16,
          17,
          18,
          19,
          20,
          21,
          22,
          23,
          24,
          25,
          26,
          27,
          28,
          29,
          30,
          31,
          32,
          33,
          34,
          35,
          36,
          37,
          38,
          39,
          40,
          41,
          42,
          43,
          44,
          45,
          46,
          47,
          48,
          49,
          50,
          51,
          52,
          53,
          54,
          55,
          56,
          57,
          58,
          59,
          60,
          61,
          62,
          63,
          64,
          65,
          66,
          67,
          68,
          69,
          70,
          71,
          72,
          73,
          74,
          75,
          76,
          77,
          78,
          79,
          80,
          81,
          82,
          83,
          84,
          85,
          86,
          87,
          88,
          89,
          90,
          91,
          92,
          93,
          94,
          95,
          96,
          97,
          98,
          99,
          100,
          101,
          102,
          103,
          104,
          105,
          106,
          107,
          108,
          109,
          110,
          111,
          112,
          113,
          114,
          115,
          116,
          117,
          118,
          119,
          120,
          121,
          122,
          123,
          124,
          125,
          126,
          127,
          128,
          129,
          130,
          131,
          132,
          133,
          134,
          135,
          136,
          137,
          138,
          139,
          140,
          141,
          142,
          143,
          144,
          145,
          146,
          147,
          148,
          149,
          150,
          151,
          152,
          153,
          154,
          155,
          156,
          157,
          158,
          159,
          160,
          161,
          162,
          163,
          164,
          165,
          166,
          167,
          168,
          169,
          170,
          171,
          172,
          173,
          174,
          175,
          176,
          177,
          178,
          179,
          180,
          181,
          182,
          183,
          184,
          185,
          186,
          187,
          188,
          189,
          190,
          191,
          192,
          193,
          194,
          195,
          196,
          197,
          198,
          199,
          200,
          201,
          202,
          203,
          204,
          205,
          206,
          207,
          208,
          209,
          210,
          211,
          212,
          213,
          214,
          215,
          216,
          217,
          218,
          219,
          220,
          221,
          222,
          223,
          224,
          225,
          226,
          227,
          228,
          229,
          230,
          231,
          232,
          233,
          234,
          235,
          236,
          237,
          238,
          239,
          240
        ],
        "AcquisitionTime": [
          "095156.587500",
          "095158.595000",
          "095200.602500",
          "095202.612500",
          "095204.620000",
          "095206.627500",
          "095208.635000",
          "095210.642500",
          "095212.652500",
          "095214.660000",
          "095216.667500",
          "095218.675000",
          "095220.685000",
          "095222.692500",
          "095224.700000",
          "095226.707500",
          "095228.715000",
          "095230.725000",
          "095232.732500",
          "095234.740000",
          "095236.747500",
          "095238.755000",
          "095240.765000",
          "095242.772500",
          "095244.780000",
          "095246.787500",
          "095248.797500",
          "095250.805000",
          "095252.812500",
          "095254.820000",
          "095256.827500",
          "095258.837500",
          "095300.845000",
          "095302.852500",
          "095304.860000",
          "095306.867500",
          "095308.877500",
          "095310.885000",
          "095312.892500",
          "095314.900000",
          "095316.910000",
          "095318.917500",
          "095320.925000",
          "095322.932500",
          "095324.940000",
          "095326.950000",
          "095328.957500",
          "095330.965000",
          "095332.972500",
          "095334.980000",
          "095336.990000",
          "095338.997500",
          "095341.005000",
          "095343.012500",
          "095345.020000",
          "095347.030000",
          "095349.037500",
          "095351.045000",
          "095353.052500",
          "095355.062500",
          "095357.070000",
          "095359.077500",
          "095401.085000",
          "095403.092500",
          "095405.102500",
          "095407.110000",
          "095409.117500",
          "095411.125000",
          "095413.132500",
          "095415.142500",
          "095417.150000",
          "095419.157500",
          "095421.165000",
          "095423.175000",
          "095425.182500",
          "095427.190000",
          "095429.197500",
          "095431.205000",
          "095433.215000",
          "095435.222500",
          "095437.230000",
          "095439.237500",
          "095441.245000",
          "095443.255000",
          "095445.262500",
          "095447.270000",
          "095449.277500",
          "095451.287500",
          "095453.295000",
          "095455.302500",
          "095457.310000",
          "095459.317500",
          "095501.327500",
          "095503.335000",
          "095505.342500",
          "095507.350000",
          "095509.357500",
          "095511.367500",
          "095513.375000",
          "095515.382500",
          "095517.390000",
          "095519.397500",
          "095521.407500",
          "095523.415000",
          "095525.422500",
          "095527.430000",
          "095529.440000",
          "095531.447500",
          "095533.455000",
          "095535.462500",
          "095537.470000",
          "095539.480000",
          "095541.487500",
          "095543.495000",
          "095545.502500",
          "095547.510000",
          "095549.520000",
          "095551.527500",
          "095553.535000",
          "095555.542500",
          "095557.552500",
          "095559.560000",
          "095601.567500",
          "095603.575000",
          "095605.582500",
          "095607.592500",
          "095609.600000",
          "095611.607500",
          "095613.615000",
          "095615.622500",
          "095617.632500",
          "095619.640000",
          "095621.647500",
          "095623.655000",
          "095625.665000",
          "095627.672500",
          "095629.680000",
          "095631.687500",
          "095633.695000",
          "095635.705000",
          "095637.712500",
          "095639.720000",
          "095641.727500",
          "095643.735000",
          "095645.745000",
          "095647.752500",
          "095649.760000",
          "095651.767500",
          "095653.777500",
          "095655.785000",
          "095657.792500",
          "095659.800000",
          "095701.807500",
          "095703.817500",
          "095705.825000",
          "095707.832500",
          "095709.840000",
          "095711.847500",
          "095713.857500",
          "095715.865000",
          "095717.872500",
          "095719.880000",
          "095721.887500",
          "095723.897500",
          "095725.905000",
          "095727.912500",
          "095729.920000",
          "095731.930000",
          "095733.937500",
          "095735.945000",
          "095737.952500",
          "095739.960000",
          "095741.970000",
          "095743.977500",
          "095745.985000",
          "095747.992500",
          "095750.000000",
          "095752.010000",
          "095754.017500",
          "095756.025000",
          "095758.032500",
          "095800.042500",
          "095802.050000",
          "095804.057500",
          "095806.065000",
          "095808.072500",
          "095810.082500",
          "095812.090000",
          "095814.097500",
          "095816.105000",
          "095818.112500",
          "095820.122500",
          "095822.130000",
          "095824.137500",
          "095826.145000",
          "095828.155000",
          "095830.162500",
          "095832.170000",
          "095834.177500",
          "095836.185000",
          "095838.195000",
          "095840.202500",
          "095842.210000",
          "095844.217500",
          "095846.225000",
          "095848.235000",
          "095850.242500",
          "095852.250000",
          "095854.257500",
          "095856.265000",
          "095858.275000",
          "095900.282500",
          "095902.290000",
          "095904.297500",
          "095906.307500",
          "095908.315000",
          "095910.322500",
          "095912.330000",
          "095914.337500",
          "095916.347500",
          "095918.355000",
          "095920.362500",
          "095922.370000",
          "095924.377500",
          "095926.387500",
          "095928.395000",
          "095930.402500",
          "095932.410000",
          "095934.420000",
          "095936.427500",
          "095938.435000",
          "095940.442500",
          "095942.450000",
          "095944.460000",
          "095946.467500",
          "095948.475000",
          "095950.482500",
          "095952.490000",
          "095954.500000",
          "095956.507500"
        ],
        "ContentTime": [
          "095245.984000",
          "095245.984000",
          "095245.984000",
          "095246.000000",
          "095246.000000",
          "095246.000000",
          "095246.000000",
          "095246.000000",
          "095246.000000",
          "095246.000000",
          "095246.000000",
          "095246.015000",
          "095246.015000",
          "095246.015000",
          "095246.015000",
          "095246.015000",
          "095246.015000",
          "095246.015000",
          "095246.015000",
          "095246.031000",
          "095246.031000",
          "095246.031000",
          "095246.031000",
          "095246.031000",
          "095246.031000",
          "095325.984000",
          "095325.984000",
          "095325.984000",
          "095325.984000",
          "095325.984000",
          "095325.984000",
          "095326.000000",
          "095326.000000",
          "095326.000000",
          "095326.000000",
          "095326.000000",
          "095326.000000",
          "095326.000000",
          "095326.000000",
          "095326.015000",
          "095326.015000",
          "095326.015000",
          "095326.015000",
          "095326.015000",
          "095326.015000",
          "095405.984000",
          "095405.984000",
          "095405.984000",
          "095405.984000",
          "095405.984000",
          "095406.000000",
          "095406.000000",
          "095406.000000",
          "095406.000000",
          "095406.000000",
          "095406.000000",
          "095406.000000",
          "095406.000000",
          "095406.015000",
          "095406.015000",
          "095406.015000",
          "095406.015000",
          "095406.015000",
          "095406.015000",
          "095406.015000",
          "095445.984000",
          "095445.984000",
          "095445.984000",
          "095445.984000",
          "095445.984000",
          "095445.984000",
          "095446.000000",
          "095446.000000",
          "095446.000000",
          "095446.000000",
          "095446.000000",
          "095446.000000",
          "095446.000000",
          "095446.015000",
          "095446.015000",
          "095446.015000",
          "095446.015000",
          "095446.015000",
          "095446.015000",
          "095446.015000",
          "095525.984000",
          "095525.984000",
          "095525.984000",
          "095525.984000",
          "095525.984000",
          "095526.000000",
          "095526.000000",
          "095526.000000",
          "095526.000000",
          "095526.000000",
          "095526.000000",
          "095526.000000",
          "095526.000000",
          "095526.015000",
          "095526.015000",
          "095526.015000",
          "095526.015000",
          "095526.015000",
          "095526.015000",
          "095526.015000",
          "095605.984000",
          "095605.984000",
          "095605.984000",
          "095605.984000",
          "095605.984000",
          "095605.984000",
          "095606.000000",
          "095606.000000",
          "095606.000000",
          "095606.015000",
          "095606.015000",
          "095606.015000",
          "095606.015000",
          "095606.015000",
          "095606.015000",
          "095606.015000",
          "095606.015000",
          "095606.031000",
          "095606.031000",
          "095606.031000",
          "095645.984000",
          "095645.984000",
          "095645.984000",
          "095645.984000",
          "095645.984000",
          "095646.000000",
          "095646.000000",
          "095646.000000",
          "095646.000000",
          "095646.000000",
          "095646.000000",
          "095646.000000",
          "095646.000000",
          "095646.015000",
          "095646.015000",
          "095646.015000",
          "095646.015000",
          "095646.015000",
          "095646.015000",
          "095646.015000",
          "095725.984000",
          "095725.984000",
          "095725.984000",
          "095725.984000",
          "095725.984000",
          "095726.000000",
          "095726.000000",
          "095726.000000",
          "095726.000000",
          "095726.000000",
          "095726.000000",
          "095726.000000",
          "095726.000000",
          "095726.015000",
          "095726.015000",
          "095726.015000",
          "095726.015000",
          "095726.015000",
          "095726.015000",
          "095726.015000",
          "095805.984000",
          "095805.984000",
          "095805.984000",
          "095805.984000",
          "095805.984000",
          "095806.000000",
          "095806.000000",
          "095806.000000",
          "095806.000000",
          "095806.000000",
          "095806.000000",
          "095806.000000",
          "095806.000000",
          "095806.015000",
          "095806.015000",
          "095806.015000",
          "095806.015000",
          "095806.015000",
          "095806.015000",
          "095806.015000",
          "095845.984000",
          "095845.984000",
          "095845.984000",
          "095845.984000",
          "095845.984000",
          "095845.984000",
          "095846.000000",
          "095846.000000",
          "095846.000000",
          "095846.000000",
          "095846.000000",
          "095846.000000",
          "095846.000000",
          "095846.015000",
          "095846.015000",
          "095846.015000",
          "095846.015000",
          "095846.015000",
          "095846.015000",
          "095846.015000",
          "095925.984000",
          "095925.984000",
          "095925.984000",
          "095925.984000",
          "095925.984000",
          "095925.984000",
          "095926.000000",
          "095926.000000",
          "095926.000000",
          "095926.000000",
          "095926.000000",
          "095926.000000",
          "095926.000000",
          "095926.015000",
          "095926.015000",
          "095926.015000",
          "095926.015000",
          "095926.015000",
          "095926.015000",
          "095926.015000",
          "095955.734000",
          "095955.734000",
          "095955.734000",
          "095955.734000",
          "095955.750000",
          "095955.750000",
          "095955.750000",
          "095955.750000",
          "095955.750000",
          "095955.750000",
          "095955.750000",
          "095955.750000",
          "095955.765000",
          "095955.765000",
          "095955.765000"
        ],
        "InstanceCreationTime": [
          "095245.984000",
          "095245.984000",
          "095245.984000",
          "095246.000000",
          "095246.000000",
          "095246.000000",
          "095246.000000",
          "095246.000000",
          "095246.000000",
          "095246.000000",
          "095246.000000",
          "095246.015000",
          "095246.015000",
          "095246.015000",
          "095246.015000",
          "095246.015000",
          "095246.015000",
          "095246.015000",
          "095246.015000",
          "095246.031000",
          "095246.031000",
          "095246.031000",
          "095246.031000",
          "095246.031000",
          "095246.031000",
          "095325.984000",
          "095325.984000",
          "095325.984000",
          "095325.984000",
          "095325.984000",
          "095325.984000",
          "095326.000000",
          "095326.000000",
          "095326.000000",
          "095326.000000",
          "095326.000000",
          "095326.000000",
          "095326.000000",
          "095326.000000",
          "095326.015000",
          "095326.015000",
          "095326.015000",
          "095326.015000",
          "095326.015000",
          "095326.015000",
          "095405.984000",
          "095405.984000",
          "095405.984000",
          "095405.984000",
          "095405.984000",
          "095406.000000",
          "095406.000000",
          "095406.000000",
          "095406.000000",
          "095406.000000",
          "095406.000000",
          "095406.000000",
          "095406.000000",
          "095406.015000",
          "095406.015000",
          "095406.015000",
          "095406.015000",
          "095406.015000",
          "095406.015000",
          "095406.015000",
          "095445.984000",
          "095445.984000",
          "095445.984000",
          "095445.984000",
          "095445.984000",
          "095445.984000",
          "095446.000000",
          "095446.000000",
          "095446.000000",
          "095446.000000",
          "095446.000000",
          "095446.000000",
          "095446.000000",
          "095446.015000",
          "095446.015000",
          "095446.015000",
          "095446.015000",
          "095446.015000",
          "095446.015000",
          "095446.015000",
          "095525.984000",
          "095525.984000",
          "095525.984000",
          "095525.984000",
          "095525.984000",
          "095526.000000",
          "095526.000000",
          "095526.000000",
          "095526.000000",
          "095526.000000",
          "095526.000000",
          "095526.000000",
          "095526.000000",
          "095526.015000",
          "095526.015000",
          "095526.015000",
          "095526.015000",
          "095526.015000",
          "095526.015000",
          "095526.015000",
          "095605.984000",
          "095605.984000",
          "095605.984000",
          "095605.984000",
          "095605.984000",
          "095605.984000",
          "095606.000000",
          "095606.000000",
          "095606.000000",
          "095606.015000",
          "095606.015000",
          "095606.015000",
          "095606.015000",
          "095606.015000",
          "095606.015000",
          "095606.015000",
          "095606.015000",
          "095606.031000",
          "095606.031000",
          "095606.031000",
          "095645.984000",
          "095645.984000",
          "095645.984000",
          "095645.984000",
          "095645.984000",
          "095646.000000",
          "095646.000000",
          "095646.000000",
          "095646.000000",
          "095646.000000",
          "095646.000000",
          "095646.000000",
          "095646.000000",
          "095646.015000",
          "095646.015000",
          "095646.015000",
          "095646.015000",
          "095646.015000",
          "095646.015000",
          "095646.015000",
          "095725.984000",
          "095725.984000",
          "095725.984000",
          "095725.984000",
          "095725.984000",
          "095726.000000",
          "095726.000000",
          "095726.000000",
          "095726.000000",
          "095726.000000",
          "095726.000000",
          "095726.000000",
          "095726.000000",
          "095726.015000",
          "095726.015000",
          "095726.015000",
          "095726.015000",
          "095726.015000",
          "095726.015000",
          "095726.015000",
          "095805.984000",
          "095805.984000",
          "095805.984000",
          "095805.984000",
          "095805.984000",
          "095806.000000",
          "095806.000000",
          "095806.000000",
          "095806.000000",
          "095806.000000",
          "095806.000000",
          "095806.000000",
          "095806.000000",
          "095806.015000",
          "095806.015000",
          "095806.015000",
          "095806.015000",
          "095806.015000",
          "095806.015000",
          "095806.015000",
          "095845.984000",
          "095845.984000",
          "095845.984000",
          "095845.984000",
          "095845.984000",
          "095845.984000",
          "095846.000000",
          "095846.000000",
          "095846.000000",
          "095846.000000",
          "095846.000000",
          "095846.000000",
          "095846.000000",
          "095846.015000",
          "095846.015000",
          "095846.015000",
          "095846.015000",
          "095846.015000",
          "095846.015000",
          "095846.015000",
          "095925.984000",
          "095925.984000",
          "095925.984000",
          "095925.984000",
          "095925.984000",
          "095925.984000",
          "095926.000000",
          "095926.000000",
          "095926.000000",
          "095926.000000",
          "095926.000000",
          "095926.000000",
          "095926.000000",
          "095926.015000",
          "095926.015000",
          "095926.015000",
          "095926.015000",
          "095926.015000",
          "095926.015000",
          "095926.015000",
          "095955.734000",
          "095955.734000",
          "095955.734000",
          "095955.734000",
          "095955.750000",
          "095955.750000",
          "095955.750000",
          "095955.750000",
          "095955.750000",
          "095955.750000",
          "095955.750000",
          "095955.750000",
          "095955.765000",
          "095955.765000",
          "095955.765000"
        ],
        "InstanceNumber": [
          1,
          2,
          3,
          4,
          5,
          6,
          7,
          8,
          9,
          10,
          11,
          12,
          13,
          14,
          15,
          16,
          17,
          18,
          19,
          20,
          21,
          22,
          23,
          24,
          25,
          26,
          27,
          28,
          29,
          30,
          31,
          32,
          33,
          34,
          35,
          36,
          37,
          38,
          39,
          40,
          41,
          42,
          43,
          44,
          45,
          46,
          47,
          48,
          49,
          50,
          51,
          52,
          53,
          54,
          55,
          56,
          57,
          58,
          59,
