{
  "AcquisitionMatrixPE": 68,
  "AcquisitionNumber": 1,
  "AcquisitionTime": "16:28:54.287500",
  "BandwidthPerPixelPhaseEncode": 31.289,
  "BaseResolution": 68,
  "CoilString": "C:HEA;HEP",
  "ConversionSoftware": "dcm2niix",
  "ConversionSoftwareVersion": "v1.0.20190902",
  "DerivedVendorReportedEchoSpacing": 0.000470002,
  "DeviceSerialNumber": "35450",
  "DwellTime": 3e-06,
  "EchoTime": 0.023,
  "EffectiveEchoSpacing": 0.000470002,
  "FlipAngle": 76,
  "ImageOrientationPatientDICOM": [1, 0, 0, 0, 0.996041, 0.0888943],
  "ImageType": [
    "ORIGINAL",
    "PRIMARY",
    "M",
    "ND",
    "MOSAIC"
],
  "ImagingFrequency": 123.219,
  "InPlanePhaseEncodingDirectionDICOM": "COL",
  "InstitutionAddress": "Univeristy_Ave._197_Newark_North_East_US_07102-1814",
  "InstitutionName": "RUBIC",
  "InstitutionalDepartmentName": "Department",
  "MRAcquisitionType": "2D",
  "MagneticFieldStrength": 3,
  "Manufacturer": "Siemens",
  "ManufacturersModelName": "TrioTim",
  "Modality": "MR",
  "PartialFourier": 1,
  "PatientPosition": "HFS",
  "PercentPhaseFOV": 100,
  "PhaseEncodingDirection": "j-",
  "PhaseEncodingSteps": 68,
  "PhaseResolution": 1,
  "PixelBandwidth": 2451,
  "ProcedureStepDescription": "Krekelberg_David",
  "ProtocolName": "ep2d_bold_CardGameEPI_3",
  "PulseSequenceDetails": "%SiemensSeq%_ep2d_bold",
  "ReceiveCoilName": "HeadMatrix",
  "ReconMatrixPE": 68,
  "RepetitionTime": 2,
  "SAR": 0.20328,
  "ScanOptions": "FS",
  "ScanningSequence": "EP",
  "SequenceName": "_epfid2d1_68",
  "SequenceVariant": "SK",
  "SeriesDescription": "ep2d_bold_CardGameEPI_3",
  "SeriesNumber": 12,
  "ShimSetting": [1936, -713, -7555, 640, 136, -102, 113, -52],
  "SliceThickness": 2.5,
  "SliceTiming": [1.9525, 1.895, 1.84, 1.785, 1.7275, 1.6725, 1.6175, 1.56, 1.505, 1.45, 1.395, 1.3375, 1.2825, 1.2275, 1.17, 1.115, 1.06, 1.0025, 0.9475, 0.8925, 0.8375, 0.78, 0.725, 0.67, 0.6125, 0.5575, 0.5025, 0.445, 0.39, 0.335, 0.2775, 0.2225, 0.1675, 0.1125, 0.055, 0],
  "SoftwareVersions": "syngo_MR_B19",
  "SpacingBetweenSlices": 3,
  "StationName": "MRC35450",
  "TaskName": "cardgame",
  "TotalReadoutTime": 0.0314901,
  "TxRefAmp": 378.862,
  "dcmmeta_affine": [
    [-3.0, 0.0, 0.0, 101.32203674316406],
    [0.0, 2.9881231784820557, 0.26668286323547363, -68.69874572753906],
    [0.0, -0.266682893037796, 2.9881231784820557, -31.28822898864746],
    [0.0, 0.0, 0.0, 1.0]
],
  "dcmmeta_reorient_transform": [
    [0.0, -1.0, 0.0, 67.0],
    [1.0, 0.0, 0.0, 0.0],
    [0.0, 0.0, 1.0, 0.0],
    [0.0, 0.0, 0.0, 1.0]
],
  "dcmmeta_shape": [68, 68, 36, 258],
  "dcmmeta_slice_dim": 2,
  "dcmmeta_version": 0.6,
  "global": {
    "const": {
      "AcquisitionMatrix": [68, 0, 0, 68],
      "AngioFlag": "N",
      "BitsAllocated": 16,
      "BitsStored": 12,
      "Columns": 408,
      "EchoNumbers": 1,
      "EchoTime": 23.0,
      "EchoTrainLength": 1,
      "FlipAngle": 76.0,
      "HighBit": 11,
      "ImageOrientationPatient": [1.0, 0.0, 0.0, 0.0, 0.99604106564855, 0.08889429420219],
      "ImagePositionPatient": [-611.32203388214, -639.48645300821, -94.492072242413],
      "ImageType": [
        "ORIGINAL",
        "PRIMARY",
        "M",
        "ND",
        "MOSAIC"
],
      "ImagedNucleus": "1H",
      "ImagingFrequency": 123.218605,
      "InPlanePhaseEncodingDirection": "COL",
      "MRAcquisitionType": "2D",
      "MagneticFieldStrength": 3.0,
      "Manufacturer": "SIEMENS",
      "ManufacturerModelName": "TrioTim",
      "Modality": "MR",
      "NumberOfAverages": 1.0,
      "NumberOfPhaseEncodingSteps": 68,
      "PercentPhaseFieldOfView": 100.0,
      "PercentSampling": 100.0,
      "PerformedProcedureStepStartTime": "150344.265000",
      "PhotometricInterpretation": "MONOCHROME2",
      "PixelBandwidth": 2451.0,
      "PixelRepresentation": 0,
      "PixelSpacing": [3.0, 3.0],
      "ProtocolName": "ep2d_bold_CardGameEPI_3",
      "RepetitionTime": 2000.0,
      "Rows": 408,
      "SAR": 0.2032795725773,
      "SamplesPerPixel": 1,
      "ScanOptions": "FS",
      "ScanningSequence": "EP",
      "SequenceName": "*epfid2d1_68",
      "SequenceVariant": "SK",
      "SeriesDescription": "ep2d_bold_CardGameEPI_3",
      "SeriesNumber": 12,
      "SeriesTime": "162933.531000",
      "SliceLocation": -37.271287439647,
      "SliceThickness": 2.5,
      "SmallestImagePixelValue": 0,
      "SoftwareVersions": "syngo MR B19",
      "SpacingBetweenSlices": 2.9999999058582,
      "SpecificCharacterSet": "ISO_IR 100",
      "StudyID": "1",
      "StudyTime": "150344.218000",
      "TransmitCoilName": "Body",
      "VariableFlipAngleFlag": "N",
      "WindowCenterWidthExplanation": "Algo1",
      "dBdt": 0.0},
    "slices": {}
  },
  "time": {
    "samples": {
      "AcquisitionNumber": [1, 2, 3, 4, 5, 6, 7, 8, 9, 10, 11, 12, 13, 14, 15, 16, 17, 18, 19, 20, 21, 22, 23, 24, 25, 26, 27, 28, 29, 30, 31, 32, 33, 34, 35, 36, 37, 38, 39, 40, 41, 42, 43, 44, 45, 46, 47, 48, 49, 50, 51, 52, 53, 54, 55, 56, 57, 58, 59, 60, 61, 62, 63, 64, 65, 66, 67, 68, 69, 70, 71, 72, 73, 74, 75, 76, 77, 78, 79, 80, 81, 82, 83, 84, 85, 86, 87, 88, 89, 90, 91, 92, 93, 94, 95, 96, 97, 98, 99, 100, 101, 102, 103, 104, 105, 106, 107, 108, 109, 110, 111, 112, 113, 114, 115, 116, 117, 118, 119, 120, 121, 122, 123, 124, 125, 126, 127, 128, 129, 130, 131, 132, 133, 134, 135, 136, 137, 138, 139, 140, 141, 142, 143, 144, 145, 146, 147, 148, 149, 150, 151, 152, 153, 154, 155, 156, 157, 158, 159, 160, 161, 162, 163, 164, 165, 166, 167, 168, 169, 170, 171, 172, 173, 174, 175, 176, 177, 178, 179, 180, 181, 182, 183, 184, 185, 186, 187, 188, 189, 190, 191, 192, 193, 194, 195, 196, 197, 198, 199, 200, 201, 202, 203, 204, 205, 206, 207, 208, 209, 210, 211, 212, 213, 214, 215, 216, 217, 218, 219, 220, 221, 222, 223, 224, 225, 226, 227, 228, 229, 230, 231, 232, 233, 234, 235, 236, 237, 238, 239, 240, 241, 242, 243, 244, 245, 246, 247, 248, 249, 250, 251, 252, 253, 254, 255, 256, 257, 258],
      "AcquisitionTime": ["162854.287500", "162856.295000", "162858.302500", "162900.310000", "162902.317500", "162904.327500", "162906.335000", "162908.342500", "162910.350000", "162912.360000", "162914.367500", "162916.375000", "162918.382500", "162920.390000", "162922.400000", "162924.407500", "162926.415000", "162928.422500", "162930.430000", "162932.440000", "162934.447500", "162936.455000", "162938.462500", "162940.472500", "162942.480000", "162944.487500", "162946.495000", "162948.502500", "162950.512500", "162952.520000", "162954.527500", "162956.535000", "162958.542500", "163000.552500", "163002.560000", "163004.567500", "163006.575000", "163008.585000", "163010.592500", "163012.600000", "163014.607500", "163016.615000", "163018.625000", "163020.632500", "163022.640000", "163024.647500", "163026.655000", "163028.665000", "163030.672500", "163032.680000", "163034.687500", "163036.695000", "163038.705000", "163040.712500", "163042.720000", "163044.727500", "163046.737500", "163048.745000", "163050.752500", "163052.760000", "163054.767500", "163056.777500", "163058.785000", "163100.792500", "163102.800000", "163104.807500", "163106.817500", "163108.825000", "163110.832500", "163112.840000", "163114.850000", "163116.857500", "163118.865000", "163120.872500", "163122.880000", "163124.890000", "163126.897500", "163128.905000", "163130.912500", "163132.920000", "163134.930000", "163136.937500", "163138.945000", "163140.952500", "163142.962500", "163144.970000", "163146.977500", "163148.985000", "163150.992500", "163153.002500", "163155.010000", "163157.017500", "163159.025000", "163201.032500", "163203.042500", "163205.050000", "163207.057500", "163209.065000", "163211.072500", "163213.082500", "163215.090000", "163217.097500", "163219.105000", "163221.115000", "163223.122500", "163225.130000", "163227.137500", "163229.145000", "163231.155000", "163233.162500", "163235.170000", "163237.177500", "163239.185000", "163241.195000", "163243.202500", "163245.210000", "163247.217500", "163249.227500", "163251.235000", "163253.242500", "163255.250000", "163257.257500", "163259.267500", "163301.275000", "163303.282500", "163305.290000", "163307.297500", "163309.307500", "163311.315000", "163313.322500", "163315.330000", "163317.340000", "163319.347500", "163321.355000", "163323.362500", "163325.370000", "163327.380000", "163329.387500", "163331.395000", "163333.402500", "163335.410000", "163337.420000", "163339.427500", "163341.435000", "163343.442500", "163345.450000", "163347.460000", "163349.467500", "163351.475000", "163353.482500", "163355.492500", "163357.500000", "163359.507500", "163401.515000", "163403.522500", "163405.532500", "163407.540000", "163409.547500", "163411.555000", "163413.562500", "163415.572500", "163417.580000", "163419.587500", "163421.595000", "163423.605000", "163425.612500", "163427.620000", "163429.627500", "163431.635000", "163433.645000", "163435.652500", "163437.660000", "163439.667500", "163441.675000", "163443.685000", "163445.692500", "163447.700000", "163449.707500", "163451.717500", "163453.725000", "163455.732500", "163457.740000", "163459.747500", "163501.757500", "163503.765000", "163505.772500", "163507.780000", "163509.787500", "163511.797500", "163513.805000", "163515.812500", "163517.820000", "163519.827500", "163521.837500", "163523.845000", "163525.852500", "163527.860000", "163529.870000", "163531.877500", "163533.885000", "163535.892500", "163537.900000", "163539.910000", "163541.917500", "163543.925000", "163545.932500", "163547.940000", "163549.950000", "163551.957500", "163553.965000", "163555.972500", "163557.982500", "163559.990000", "163601.997500", "163604.005000", "163606.012500", "163608.022500", "163610.030000", "163612.037500", "163614.045000", "163616.052500", "163618.062500", "163620.070000", "163622.077500", "163624.085000", "163626.095000", "163628.102500", "163630.110000", "163632.117500", "163634.125000", "163636.135000", "163638.142500", "163640.150000", "163642.157500", "163644.165000", "163646.175000", "163648.182500", "163650.190000", "163652.197500", "163654.207500", "163656.215000", "163658.222500", "163700.230000", "163702.237500", "163704.247500", "163706.255000", "163708.262500", "163710.270000", "163712.277500", "163714.287500", "163716.295000", "163718.302500", "163720.310000", "163722.317500", "163724.327500", "163726.335000", "163728.342500", "163730.350000"],
      "ContentTime": ["162933.531000", "162933.531000", "162933.531000", "162933.531000", "162933.531000", "162933.546000", "162933.546000", "162933.546000", "162933.546000", "162933.546000", "162933.546000", "162933.546000", "162933.546000", "162933.562000", "162933.562000", "162933.562000", "162933.562000", "162933.562000", "162933.562000", "162933.562000", "163013.531000", "163013.531000", "163013.531000", "163013.531000", "163013.531000", "163013.531000", "163013.531000", "163013.531000", "163013.546000", "163013.546000", "163013.546000", "163013.546000", "163013.546000", "163013.546000", "163013.546000", "163013.562000", "163013.562000", "163013.562000", "163013.562000", "163013.562000", "163053.531000", "163053.531000", "163053.531000", "163053.531000", "163053.531000", "163053.531000", "163053.531000", "163053.531000", "163053.546000", "163053.546000", "163053.546000", "163053.546000", "163053.546000", "163053.546000", "163053.546000", "163053.562000", "163053.562000", "163053.562000", "163053.562000", "163053.562000", "163133.531000", "163133.531000", "163133.531000", "163133.531000", "163133.531000", "163133.531000", "163133.531000", "163133.531000", "163133.546000", "163133.546000", "163133.546000", "163133.546000", "163133.546000", "163133.546000", "163133.546000", "163133.562000", "163133.562000", "163133.562000", "163133.562000", "163133.562000", "163213.531000", "163213.531000", "163213.531000", "163213.531000", "163213.531000", "163213.531000", "163213.531000", "163213.546000", "163213.546000", "163213.546000", "163213.546000", "163213.546000", "163213.546000", "163213.546000", "163213.546000", "163213.562000", "163213.562000", "163213.562000", "163213.562000", "163213.562000", "163253.531000", "163253.531000", "163253.531000", "163253.531000", "163253.531000", "163253.531000", "163253.531000", "163253.531000", "163253.546000", "163253.546000", "163253.546000", "163253.546000", "163253.546000", "163253.546000", "163253.546000", "163253.562000", "163253.562000", "163253.562000", "163253.562000", "163253.562000", "163313.531000", "163313.531000", "163313.531000", "163313.531000", "163313.531000", "163313.531000", "163313.531000", "163313.531000", "163313.546000", "163313.546000", "163353.531000", "163353.531000", "163353.531000", "163353.531000", "163353.531000", "163353.531000", "163353.531000", "163353.531000", "163353.546000", "163353.546000", "163353.546000", "163353.546000", "163353.546000", "163353.546000", "163353.546000", "163353.546000", "163353.562000", "163353.562000", "163353.562000", "163353.562000", "163433.531000", "163433.531000", "163433.531000", "163433.531000", "163433.531000", "163433.531000", "163433.531000", "163433.531000", "163433.546000", "163433.546000", "163433.546000", "163433.546000", "163433.546000", "163433.546000", "163433.546000", "163433.562000", "163433.562000", "163433.562000", "163433.562000", "163433.562000", "163513.531000", "163513.531000", "163513.531000", "163513.531000", "163513.531000", "163513.531000", "163513.531000", "163513.531000", "163513.546000", "163513.546000", "163513.546000", "163513.546000", "163513.546000", "163513.546000", "163513.546000", "163513.562000", "163513.562000", "163513.562000", "163513.562000", "163513.562000", "163553.531000", "163553.531000", "163553.531000", "163553.531000", "163553.531000", "163553.531000", "163553.531000", "163553.531000", "163553.546000", "163553.546000", "163553.546000", "163553.546000", "163553.546000", "163553.546000", "163553.546000", "163553.562000", "163553.562000", "163553.562000", "163553.562000", "163553.562000", "163633.531000", "163633.531000", "163633.531000", "163633.531000", "163633.531000", "163633.531000", "163633.531000", "163633.531000", "163633.546000", "163633.546000", "163633.546000", "163633.546000", "163633.546000", "163633.546000", "163633.546000", "163633.546000", "163633.562000", "163633.562000", "163633.562000", "163633.562000", "163713.531000", "163713.531000", "163713.531000", "163713.531000", "163713.531000", "163713.531000", "163713.531000", "163713.531000", "163713.546000", "163713.546000", "163713.546000", "163713.546000", "163713.546000", "163713.546000", "163713.546000", "163713.562000", "163713.562000", "163713.562000", "163713.562000", "163713.562000", "163729.484000", "163729.484000", "163729.500000", "163729.500000", "163729.500000", "163729.500000", "163729.500000", "163729.500000"],
      "InstanceCreationTime": ["162933.531000", "162933.531000", "162933.531000", "162933.531000", "162933.531000", "162933.546000", "162933.546000", "162933.546000", "162933.546000", "162933.546000", "162933.546000", "162933.546000", "162933.546000", "162933.562000", "162933.562000", "162933.562000", "162933.562000", "162933.562000", "162933.562000", "162933.562000", "163013.531000", "163013.531000", "163013.531000", "163013.531000", "163013.531000", "163013.531000", "163013.531000", "163013.531000", "163013.546000", "163013.546000", "163013.546000", "163013.546000", "163013.546000", "163013.546000", "163013.546000", "163013.562000", "163013.562000", "163013.562000", "163013.562000", "163013.562000", "163053.531000", "163053.531000", "163053.531000", "163053.531000", "163053.531000", "163053.531000", "163053.531000", "163053.531000", "163053.546000", "163053.546000", "163053.546000", "163053.546000", "163053.546000", "163053.546000", "163053.546000", "163053.562000", "163053.562000", "163053.562000", "163053.562000", "163053.562000", "163133.531000", "163133.531000", "163133.531000", "163133.531000", "163133.531000", "163133.531000", "163133.531000", "163133.531000", "163133.546000", "163133.546000", "163133.546000", "163133.546000", "163133.546000", "163133.546000", "163133.546000", "163133.562000", "163133.562000", "163133.562000", "163133.562000", "163133.562000", "163213.531000", "163213.531000", "163213.531000", "163213.531000", "163213.531000", "163213.531000", "163213.531000", "163213.546000", "163213.546000", "163213.546000", "163213.546000", "163213.546000", "163213.546000", "163213.546000", "163213.546000", "163213.562000", "163213.562000", "163213.562000", "163213.562000", "163213.562000", "163253.531000", "163253.531000", "163253.531000", "163253.531000", "163253.531000", "163253.531000", "163253.531000", "163253.531000", "163253.546000", "163253.546000", "163253.546000", "163253.546000", "163253.546000", "163253.546000", "163253.546000", "163253.562000", "163253.562000", "163253.562000", "163253.562000", "163253.562000", "163313.531000", "163313.531000", "163313.531000", "163313.531000", "163313.531000", "163313.531000", "163313.531000", "163313.531000", "163313.546000", "163313.546000", "163353.531000", "163353.531000", "163353.531000", "163353.531000", "163353.531000", "163353.531000", "163353.531000", "163353.531000", "163353.546000", "163353.546000", "163353.546000", "163353.546000", "163353.546000", "163353.546000", "163353.546000", "163353.546000", "163353.562000", "163353.562000", "163353.562000", "163353.562000", "163433.531000", "163433.531000", "163433.531000", "163433.531000", "163433.531000", "163433.531000", "163433.531000", "163433.531000", "163433.546000", "163433.546000", "163433.546000", "163433.546000", "163433.546000", "163433.546000", "163433.546000", "163433.562000", "163433.562000", "163433.562000", "163433.562000", "163433.562000", "163513.531000", "163513.531000", "163513.531000", "163513.531000", "163513.531000", "163513.531000", "163513.531000", "163513.531000", "163513.546000", "163513.546000", "163513.546000", "163513.546000", "163513.546000", "163513.546000", "163513.546000", "163513.562000", "163513.562000", "163513.562000", "163513.562000", "163513.562000", "163553.531000", "163553.531000", "163553.531000", "163553.531000", "163553.531000", "163553.531000", "163553.531000", "163553.531000", "163553.546000", "163553.546000", "163553.546000", "163553.546000", "163553.546000", "163553.546000", "163553.546000", "163553.562000", "163553.562000", "163553.562000", "163553.562000", "163553.562000", "163633.531000", "163633.531000", "163633.531000", "163633.531000", "163633.531000", "163633.531000", "163633.531000", "163633.531000", "163633.546000", "163633.546000", "163633.546000", "163633.546000", "163633.546000", "163633.546000", "163633.546000", "163633.546000", "163633.562000", "163633.562000", "163633.562000", "163633.562000", "163713.531000", "163713.531000", "163713.531000", "163713.531000", "163713.531000", "163713.531000", "163713.531000", "163713.531000", "163713.546000", "163713.546000", "163713.546000", "163713.546000", "163713.546000", "163713.546000", "163713.546000", "163713.562000", "163713.562000", "163713.562000", "163713.562000", "163713.562000", "163729.484000", "163729.484000", "163729.500000", "163729.500000", "163729.500000", "163729.500000", "163729.500000", "163729.500000"],
      "InstanceNumber": [1, 2, 3, 4, 5, 6, 7, 8, 9, 10, 11, 12, 13, 14, 15, 16, 17, 18, 19, 20, 21, 22, 23, 24, 25, 26, 27, 28, 29, 30, 31, 32, 33, 34, 35, 36, 37, 38, 39, 40, 41, 42, 43, 44, 45, 46, 47, 48, 49, 50, 51, 52, 53, 54, 55, 56, 57, 58, 59, 60, 61, 62, 63, 64, 65, 66, 67, 68, 69, 70, 71, 72, 73, 74, 75, 76, 77, 78, 79, 80, 81, 82, 83, 84, 85, 86, 87, 88, 89, 90, 91, 92, 93, 94, 95, 96, 97, 98, 99, 100, 101, 102, 103, 104, 105, 106, 107, 108, 109, 110, 111, 112, 113, 114, 115, 116, 117, 118, 119, 120, 121, 122, 123, 124, 125, 126, 127, 128, 129, 130, 131, 132, 133, 134, 135, 136, 137, 138, 139, 140, 141, 142, 143, 144, 145, 146, 147, 148, 149, 150, 151, 152, 153, 154, 155, 156, 157, 158, 159, 160, 161, 162, 163, 164, 165, 166, 167, 168, 169, 170, 171, 172, 173, 174, 175, 176, 177, 178, 179, 180, 181, 182, 183, 184, 185, 186, 187, 188, 189, 190, 191, 192, 193, 194, 195, 196, 197, 198, 199, 200, 201, 202, 203, 204, 205, 206, 207, 208, 209, 210, 211, 212, 213, 214, 215, 216, 217, 218, 219, 220, 221, 222, 223, 224, 225, 226, 227, 228, 229, 230, 231, 232, 233, 234, 235, 236, 237, 238, 239, 240, 241, 242, 243, 244, 245, 246, 247, 248, 249, 250, 251, 252, 253, 254, 255, 256, 257, 258],
      "LargestImagePixelValue": [2277, 2121, 2101, 2053, 2044, 2077, 2056, 2064, 2024, 2348, 2145, 2044, 2040, 2049, 2084, 2095, 2066, 2000, 2040, 2039, 2041, 2079, 2046, 2054, 2080, 2108, 1982, 2161, 2076, 2148, 2163, 2098, 2078, 2086, 2140, 2098, 2171, 2069, 2065, 2149, 2108, 2134, 2109, 2138, 2105, 2155, 2075, 2083, 2072, 2106, 2070, 2069, 2132, 2113, 2135, 2168, 2217, 2195, 2186, 2233, 2244, 2170, 2171, 2208, 2205, 2174, 2196, 2224, 2204, 2210, 2256, 2249, 2249, 2213, 2220, 2237, 2263, 2242, 2265, 2266, 2285, 2263, 2272, 2238, 2275, 2278, 2237, 2223, 2206, 2224, 2216, 2214, 2172, 2169, 2209, 2269, 2212, 2186, 2205, 2240, 2173, 2203, 2227, 2167, 2181, 2162, 2176, 2176, 2206, 2170, 2195, 2179, 2165, 2122, 2169, 2089, 2055, 2146, 2138, 2107, 2060, 2135, 2155, 2151, 2116, 2174, 2141, 2161, 2113, 2149, 2095, 2098, 2088, 2093, 2074, 2094, 2136, 2125, 2128, 2085, 2092, 2107, 2117, 2114, 2139, 2139, 2154, 2179, 2151, 2188, 2157, 2120, 2140, 2095, 2110, 2127, 2125, 2106, 2130, 2103, 2167, 2092, 2118, 2093, 2075, 2136, 2079, 2095, 2095, 2087, 2130, 2159, 2144, 2164, 2127, 2143, 2136, 2142, 2118, 2142, 2139, 2113, 2097, 2223, 2106, 2186, 2104, 2151, 2124, 2114, 2137, 2141, 2141, 2198, 2142, 2184, 2240, 2164, 2207, 2174, 2142, 2111, 2099, 2123, 2163, 2153, 2148, 2271, 2233, 2297, 2252, 2246, 2244, 2210, 2264, 2277, 2234, 2289, 2248, 2227, 2210, 2196, 2206, 2192, 2142, 2159, 2158, 2135, 2127, 2114, 2249, 2220, 2158, 2218, 2107, 2159, 2179, 2161, 2128, 2123, 2250, 2194, 2178, 2189, 2180, 2189, 2198, 2317, 2213, 2282, 2242, 2256, 2233, 2209, 2203, 2221, 2190, 2223],
      "WindowCenter": [841.0, 836.0, 834.0, 834.0, 833.0, 834.0, 833.0, 833.0, 837.0, 839.0, 832.0, 833.0, 832.0, 833.0, 833.0, 833.0, 833.0, 832.0, 833.0, 832.0, 833.0, 833.0, 833.0, 832.0, 834.0, 838.0, 833.0, 837.0, 835.0, 834.0, 836.0, 837.0, 835.0, 834.0, 835.0, 836.0, 836.0, 833.0, 832.0, 833.0, 831.0, 833.0, 832.0, 833.0, 833.0, 834.0, 835.0, 834.0, 834.0, 834.0, 835.0, 834.0, 835.0, 837.0, 834.0, 834.0, 837.0, 836.0, 836.0, 836.0, 837.0, 836.0, 836.0, 835.0, 836.0, 833.0, 834.0, 835.0, 836.0, 836.0, 835.0, 835.0, 835.0, 836.0, 836.0, 836.0, 835.0, 836.0, 836.0, 837.0, 838.0, 837.0, 836.0, 836.0, 836.0, 839.0, 838.0, 837.0, 839.0, 837.0, 837.0, 838.0, 838.0, 837.0, 838.0, 839.0, 837.0, 837.0, 836.0, 838.0, 837.0, 837.0, 837.0, 836.0, 835.0, 837.0, 837.0, 837.0, 838.0, 838.0, 838.0, 837.0, 837.0, 839.0, 839.0, 838.0, 840.0, 839.0, 838.0, 839.0, 838.0, 838.0, 838.0, 838.0, 838.0, 838.0, 837.0, 838.0, 838.0, 837.0, 837.0, 838.0, 838.0, 838.0, 838.0, 838.0, 839.0, 840.0, 839.0, 838.0, 839.0, 840.0, 839.0, 839.0, 841.0, 841.0, 841.0, 841.0, 842.0, 848.0, 843.0, 838.0, 837.0, 836.0, 834.0, 834.0, 835.0, 836.0, 837.0, 838.0, 840.0, 840.0, 841.0, 841.0, 839.0, 840.0, 839.0, 840.0, 839.0, 840.0, 842.0, 845.0, 845.0, 844.0, 841.0, 843.0, 842.0, 844.0, 842.0, 841.0, 841.0, 841.0, 839.0, 840.0, 839.0, 839.0, 840.0, 839.0, 840.0, 840.0, 840.0, 840.0, 842.0, 841.0, 841.0, 841.0, 842.0, 842.0, 842.0, 845.0, 842.0, 842.0, 841.0, 842.0, 843.0, 842.0, 843.0, 846.0, 846.0, 845.0, 844.0, 842.0, 839.0, 839.0, 841.0, 844.0, 843.0, 842.0, 842.0, 843.0, 842.0, 843.0, 842.0, 843.0, 842.0, 842.0, 843.0, 843.0, 845.0, 845.0, 848.0, 845.0, 844.0, 844.0, 841.0, 842.0, 844.0, 844.0, 842.0, 846.0, 844.0, 843.0, 843.0, 843.0, 843.0, 842.0, 845.0, 851.0, 852.0, 849.0, 847.0, 846.0, 845.0, 845.0, 845.0, 846.0, 845.0, 845.0],
      "WindowWidth": [1758.0, 1744.0, 1738.0, 1737.0, 1733.0, 1736.0, 1734.0, 1734.0, 1742.0, 1754.0, 1732.0, 1735.0, 1732.0, 1733.0, 1733.0, 1734.0, 1735.0, 1731.0, 1735.0, 1732.0, 1735.0, 1735.0, 1734.0, 1732.0, 1737.0, 1746.0, 1734.0, 1744.0, 1740.0, 1737.0, 1742.0, 1744.0, 1740.0, 1738.0, 1740.0, 1742.0, 1744.0, 1733.0, 1732.0, 1735.0, 1731.0, 1735.0, 1731.0, 1735.0, 1736.0, 1737.0, 1739.0, 1736.0, 1738.0, 1738.0, 1738.0, 1737.0, 1739.0, 1744.0, 1737.0, 1739.0, 1745.0, 1744.0, 1742.0, 1743.0, 1746.0, 1743.0, 1742.0, 1741.0, 1741.0, 1736.0, 1738.0, 1740.0, 1742.0, 1743.0, 1741.0, 1740.0, 1740.0, 1741.0, 1742.0, 1743.0, 1741.0, 1743.0, 1743.0, 1745.0, 1747.0, 1744.0, 1742.0, 1742.0, 1742.0, 1750.0, 1746.0, 1743.0, 1749.0, 1745.0, 1743.0, 1747.0, 1748.0, 1743.0, 1747.0, 1749.0, 1744.0, 1743.0, 1741.0, 1747.0, 1745.0, 1745.0, 1745.0, 1741.0, 1740.0, 1744.0, 1745.0, 1744.0, 1746.0, 1747.0, 1746.0, 1743.0, 1744.0, 1750.0, 1748.0, 1745.0, 1750.0, 1748.0, 1747.0, 1748.0, 1745.0, 1746.0, 1747.0, 1746.0, 1746.0, 1746.0, 1744.0, 1746.0, 1744.0, 1743.0, 1744.0, 1747.0, 1744.0, 1747.0, 1747.0, 1746.0, 1749.0, 1750.0, 1748.0, 1744.0, 1748.0, 1752.0, 1748.0, 1748.0, 1752.0, 1752.0, 1751.0, 1752.0, 1756.0, 1769.0, 1757.0, 1745.0, 1743.0, 1741.0, 1736.0, 1734.0, 1737.0, 1739.0, 1743.0, 1743.0, 1749.0, 1748.0, 1751.0, 1751.0, 1747.0, 1750.0, 1747.0, 1748.0, 1746.0, 1747.0, 1755.0, 1760.0, 1760.0, 1759.0, 1752.0, 1757.0, 1753.0, 1759.0, 1753.0, 1751.0, 1751.0, 1752.0, 1746.0, 1751.0, 1747.0, 1749.0, 1749.0, 1748.0, 1749.0, 1749.0, 1749.0, 1750.0, 1755.0, 1751.0, 1752.0, 1750.0, 1755.0, 1753.0, 1753.0, 1766.0, 1755.0, 1755.0, 1752.0, 1753.0, 1756.0, 1754.0, 1756.0, 1763.0, 1763.0, 1761.0, 1757.0, 1753.0, 1747.0, 1747.0, 1751.0, 1763.0, 1757.0, 1753.0, 1754.0, 1754.0, 1753.0, 1755.0, 1753.0, 1755.0, 1752.0, 1754.0, 1755.0, 1756.0, 1759.0, 1761.0, 1769.0, 1759.0, 1757.0, 1759.0, 1751.0, 1752.0, 1759.0, 1757.0, 1753.0, 1760.0, 1760.0, 1754.0, 1755.0, 1756.0, 1755.0, 1753.0, 1760.0, 1779.0, 1776.0, 1769.0, 1763.0, 1760.0, 1758.0, 1757.0, 1759.0, 1761.0, 1758.0, 1758.0]
    },
    "slices": {}
  }
}