{
  "AcquisitionMatrixPE": 68,
  "AcquisitionNumber": 1,
  "AcquisitionTime": "11:22:7.805000",
  "BandwidthPerPixelPhaseEncode": 31.289,
  "BaseResolution": 68,
  "CoilString": "C:HEP",
  "ConversionSoftware": "dcm2niix",
  "ConversionSoftwareVersion": "v1.0.20190902",
  "DerivedVendorReportedEchoSpacing": 0.000470002,
  "DeviceSerialNumber": "35450",
  "DwellTime": 3e-06,
  "EchoTime": 0.023,
  "EffectiveEchoSpacing": 0.000470002,
  "FlipAngle": 76,
  "ImageOrientationPatientDICOM": [0.999328, 0.0035122, 0.036475, -5.88464e-08, 0.995396, -0.0958458],
  "ImageType": [
    "ORIGINAL",
    "PRIMARY",
    "M",
    "ND",
    "MOSAIC"
],
  "ImagingFrequency": 123.219,
  "InPlanePhaseEncodingDirectionDICOM": "COL",
  "InstitutionAddress": "Univeristy_Ave._197_Newark_North_East_US_07102-1814",
  "InstitutionName": "RUBIC",
  "InstitutionalDepartmentName": "Department",
  "MRAcquisitionType": "2D",
  "MagneticFieldStrength": 3,
  "Manufacturer": "Siemens",
  "ManufacturersModelName": "TrioTim",
  "Modality": "MR",
  "PartialFourier": 1,
  "PatientPosition": "HFS",
  "PercentPhaseFOV": 100,
  "PhaseEncodingDirection": "j-",
  "PhaseEncodingSteps": 68,
  "PhaseResolution": 1,
  "PixelBandwidth": 2451,
  "ProcedureStepDescription": "Krekelberg_David",
  "ProtocolName": "ep2d_bold_RestEPI_4",
  "PulseSequenceDetails": "%SiemensSeq%_ep2d_bold",
  "ReceiveCoilName": "HeadMatrix",
  "ReconMatrixPE": 68,
  "RepetitionTime": 2,
  "SAR": 0.243173,
  "ScanOptions": "FS",
  "ScanningSequence": "EP",
  "SequenceName": "_epfid2d1_68",
  "SequenceVariant": "SK",
  "SeriesDescription": "ep2d_bold_RestEPI_4",
  "SeriesNumber": 10,
  "ShimSetting": [2171, -427, -7491, 1852, 778, 663, -1692, -78],
  "SliceThickness": 2.5,
  "SliceTiming": [1.95, 1.895, 1.84, 1.785, 1.7275, 1.6725, 1.6175, 1.56, 1.505, 1.45, 1.3925, 1.3375, 1.2825, 1.225, 1.17, 1.115, 1.06, 1.0025, 0.9475, 0.8925, 0.835, 0.78, 0.725, 0.6675, 0.6125, 0.5575, 0.5025, 0.445, 0.39, 0.335, 0.2775, 0.2225, 0.1675, 0.11, 0.055, 0],
  "SoftwareVersions": "syngo_MR_B19",
  "SpacingBetweenSlices": 3,
  "StationName": "MRC35450",
  "TaskName": "rest",
  "TotalReadoutTime": 0.0314901,
  "TxRefAmp": 461.109,
  "dcmmeta_affine": [
    [-2.9979851245880127, -1.7653934492045664e-07, 0.10993113368749619, 100.00770568847656],
    [-0.010536608286201954, 2.9861886501312256, -0.28734415769577026, -70.78457641601562],
    [0.10942501574754715, 0.28753727674484253, 2.9841830730438232, -64.7544174194336],
    [0.0, 0.0, 0.0, 1.0]
],
  "dcmmeta_reorient_transform": [
    [0.0, -1.0, 0.0, 67.0],
    [1.0, 0.0, 0.0, 0.0],
    [0.0, 0.0, 1.0, 0.0],
    [0.0, 0.0, 0.0, 1.0]
],
  "dcmmeta_shape": [68, 68, 36, 240],
  "dcmmeta_slice_dim": 2,
  "dcmmeta_version": 0.6,
  "global": {
    "const": {
      "AcquisitionMatrix": [68, 0, 0, 68],
      "AngioFlag": "N",
      "BitsAllocated": 16,
      "BitsStored": 12,
      "Columns": 408,
      "EchoNumbers": 1,
      "EchoTime": 23.0,
      "EchoTrainLength": 1,
      "FlipAngle": 76.0,
      "HighBit": 11,
      "ImageOrientationPatient": [0.9993283936518, 0.0035122028204, 0.03647500613653, -5.8846447e-08, 0.99539619806099, -0.0958457557001],
      "ImagePositionPatient": [-609.66514615448, -638.73334667388, -15.21033976199],
      "ImageType": [
        "ORIGINAL",
        "PRIMARY",
        "M",
        "ND",
        "MOSAIC"
],
      "ImagedNucleus": "1H",
      "ImagingFrequency": 123.218535,
      "InPlanePhaseEncodingDirection": "COL",
      "MRAcquisitionType": "2D",
      "MagneticFieldStrength": 3.0,
      "Manufacturer": "SIEMENS",
      "ManufacturerModelName": "TrioTim",
      "Modality": "MR",
      "NumberOfAverages": 1.0,
      "NumberOfPhaseEncodingSteps": 68,
      "PercentPhaseFieldOfView": 100.0,
      "PercentSampling": 100.0,
      "PerformedProcedureStepStartTime": "102358.359000",
      "PhotometricInterpretation": "MONOCHROME2",
      "PixelBandwidth": 2451.0,
      "PixelRepresentation": 0,
      "PixelSpacing": [3.0, 3.0],
      "ProtocolName": "ep2d_bold_RestEPI_4",
      "RepetitionTime": 2000.0,
      "Rows": 408,
      "SAR": 0.24317283616641,
      "SamplesPerPixel": 1,
      "ScanOptions": "FS",
      "ScanningSequence": "EP",
      "SequenceName": "*epfid2d1_68",
      "SequenceVariant": "SK",
      "SeriesDescription": "ep2d_bold_RestEPI_4",
      "SeriesNumber": 10,
      "SeriesTime": "112259.500000",
      "SliceLocation": -53.968515180394,
      "SliceThickness": 2.5,
      "SmallestImagePixelValue": 0,
      "SoftwareVersions": "syngo MR B19",
      "SpacingBetweenSlices": 3.0000000136537,
      "SpecificCharacterSet": "ISO_IR 100",
      "StudyID": "1",
      "StudyTime": "102358.281000",
      "TransmitCoilName": "Body",
      "VariableFlipAngleFlag": "N",
      "WindowCenterWidthExplanation": "Algo1",
      "dBdt": 0.0},
    "slices": {}
  },
  "time": {
    "samples": {
      "AcquisitionNumber": [1, 2, 3, 4, 5, 6, 7, 8, 9, 10, 11, 12, 13, 14, 15, 16, 17, 18, 19, 20, 21, 22, 23, 24, 25, 26, 27, 28, 29, 30, 31, 32, 33, 34, 35, 36, 37, 38, 39, 40, 41, 42, 43, 44, 45, 46, 47, 48, 49, 50, 51, 52, 53, 54, 55, 56, 57, 58, 59, 60, 61, 62, 63, 64, 65, 66, 67, 68, 69, 70, 71, 72, 73, 74, 75, 76, 77, 78, 79, 80, 81, 82, 83, 84, 85, 86, 87, 88, 89, 90, 91, 92, 93, 94, 95, 96, 97, 98, 99, 100, 101, 102, 103, 104, 105, 106, 107, 108, 109, 110, 111, 112, 113, 114, 115, 116, 117, 118, 119, 120, 121, 122, 123, 124, 125, 126, 127, 128, 129, 130, 131, 132, 133, 134, 135, 136, 137, 138, 139, 140, 141, 142, 143, 144, 145, 146, 147, 148, 149, 150, 151, 152, 153, 154, 155, 156, 157, 158, 159, 160, 161, 162, 163, 164, 165, 166, 167, 168, 169, 170, 171, 172, 173, 174, 175, 176, 177, 178, 179, 180, 181, 182, 183, 184, 185, 186, 187, 188, 189, 190, 191, 192, 193, 194, 195, 196, 197, 198, 199, 200, 201, 202, 203, 204, 205, 206, 207, 208, 209, 210, 211, 212, 213, 214, 215, 216, 217, 218, 219, 220, 221, 222, 223, 224, 225, 226, 227, 228, 229, 230, 231, 232, 233, 234, 235, 236, 237, 238, 239, 240],
      "AcquisitionTime": ["112207.805000", "112209.815000", "112211.822500", "112213.830000", "112215.837500", "112217.847500", "112219.855000", "112221.862500", "112223.870000", "112225.877500", "112227.887500", "112229.895000", "112231.902500", "112233.910000", "112235.917500", "112237.927500", "112239.935000", "112241.942500", "112243.950000", "112245.957500", "112247.967500", "112249.975000", "112251.982500", "112253.990000", "112256.000000", "112258.007500", "112300.015000", "112302.022500", "112304.030000", "112306.040000", "112308.047500", "112310.055000", "112312.062500", "112314.070000", "112316.080000", "112318.087500", "112320.095000", "112322.102500", "112324.112500", "112326.120000", "112328.127500", "112330.135000", "112332.142500", "112334.152500", "112336.160000", "112338.167500", "112340.175000", "112342.182500", "112344.192500", "112346.200000", "112348.207500", "112350.215000", "112352.225000", "112354.232500", "112356.240000", "112358.247500", "112400.255000", "112402.265000", "112404.272500", "112406.280000", "112408.287500", "112410.295000", "112412.305000", "112414.312500", "112416.320000", "112418.327500", "112420.335000", "112422.345000", "112424.352500", "112426.360000", "112428.367500", "112430.377500", "112432.385000", "112434.392500", "112436.400000", "112438.407500", "112440.417500", "112442.425000", "112444.432500", "112446.440000", "112448.447500", "112450.457500", "112452.465000", "112454.472500", "112456.480000", "112458.490000", "112500.497500", "112502.505000", "112504.512500", "112506.520000", "112508.530000", "112510.537500", "112512.545000", "112514.552500", "112516.560000", "112518.570000", "112520.577500", "112522.585000", "112524.592500", "112526.602500", "112528.610000", "112530.617500", "112532.625000", "112534.632500", "112536.642500", "112538.650000", "112540.657500", "112542.665000", "112544.672500", "112546.682500", "112548.690000", "112550.697500", "112552.705000", "112554.712500", "112556.722500", "112558.730000", "112600.737500", "112602.745000", "112604.755000", "112606.762500", "112608.770000", "112610.777500", "112612.785000", "112614.795000", "112616.802500", "112618.810000", "112620.817500", "112622.825000", "112624.835000", "112626.842500", "112628.850000", "112630.857500", "112632.867500", "112634.875000", "112636.882500", "112638.890000", "112640.897500", "112642.907500", "112644.915000", "112646.922500", "112648.930000", "112650.937500", "112652.947500", "112654.955000", "112656.962500", "112658.970000", "112700.980000", "112702.987500", "112704.995000", "112707.002500", "112709.010000", "112711.020000", "112713.027500", "112715.035000", "112717.042500", "112719.050000", "112721.060000", "112723.067500", "112725.075000", "112727.082500", "112729.090000", "112731.100000", "112733.107500", "112735.115000", "112737.122500", "112739.132500", "112741.140000", "112743.147500", "112745.155000", "112747.162500", "112749.172500", "112751.180000", "112753.187500", "112755.195000", "112757.202500", "112759.212500", "112801.220000", "112803.227500", "112805.235000", "112807.245000", "112809.252500", "112811.260000", "112813.267500", "112815.275000", "112817.285000", "112819.292500", "112821.300000", "112823.307500", "112825.315000", "112827.325000", "112829.332500", "112831.340000", "112833.347500", "112835.357500", "112837.365000", "112839.372500", "112841.380000", "112843.387500", "112845.397500", "112847.405000", "112849.412500", "112851.420000", "112853.427500", "112855.437500", "112857.445000", "112859.452500", "112901.460000", "112903.467500", "112905.477500", "112907.485000", "112909.492500", "112911.500000", "112913.510000", "112915.517500", "112917.525000", "112919.532500", "112921.540000", "112923.550000", "112925.557500", "112927.565000", "112929.572500", "112931.580000", "112933.590000", "112935.597500", "112937.605000", "112939.612500", "112941.622500", "112943.630000", "112945.637500", "112947.645000", "112949.652500", "112951.662500", "112953.670000", "112955.677500", "112957.685000", "112959.692500", "113001.702500", "113003.710000", "113005.717500", "113007.725000"],
      "ContentTime": ["112259.515000", "112259.515000", "112259.515000", "112259.515000", "112259.515000", "112259.515000", "112259.515000", "112259.531000", "112259.531000", "112259.531000", "112259.531000", "112259.531000", "112259.531000", "112259.531000", "112259.531000", "112259.546000", "112259.546000", "112259.546000", "112259.546000", "112259.562000", "112259.562000", "112259.562000", "112259.562000", "112259.562000", "112259.562000", "112259.562000", "112339.500000", "112339.500000", "112339.515000", "112339.515000", "112339.515000", "112339.515000", "112339.515000", "112339.515000", "112339.515000", "112339.531000", "112339.531000", "112339.531000", "112339.531000", "112339.531000", "112339.531000", "112339.531000", "112339.546000", "112339.546000", "112339.546000", "112339.546000", "112419.500000", "112419.515000", "112419.515000", "112419.515000", "112419.515000", "112419.515000", "112419.515000", "112419.515000", "112419.515000", "112419.531000", "112419.531000", "112419.531000", "112419.531000", "112419.531000", "112419.531000", "112419.531000", "112419.546000", "112419.546000", "112419.546000", "112419.546000", "112459.500000", "112459.500000", "112459.515000", "112459.515000", "112459.515000", "112459.515000", "112459.515000", "112459.515000", "112459.515000", "112459.531000", "112459.531000", "112459.531000", "112459.531000", "112459.531000", "112459.531000", "112459.531000", "112459.531000", "112459.546000", "112459.546000", "112459.546000", "112539.500000", "112539.500000", "112539.515000", "112539.515000", "112539.515000", "112539.515000", "112539.515000", "112539.515000", "112539.515000", "112539.531000", "112539.531000", "112539.531000", "112539.531000", "112539.531000", "112539.531000", "112539.531000", "112539.546000", "112539.546000", "112539.546000", "112539.546000", "112559.500000", "112559.500000", "112559.515000", "112559.515000", "112559.515000", "112559.515000", "112559.515000", "112559.515000", "112559.515000", "112559.531000", "112639.500000", "112639.500000", "112639.515000", "112639.515000", "112639.515000", "112639.515000", "112639.515000", "112639.515000", "112639.515000", "112639.531000", "112639.531000", "112639.531000", "112639.531000", "112639.531000", "112639.531000", "112639.531000", "112639.546000", "112639.546000", "112639.546000", "112639.546000", "112719.500000", "112719.500000", "112719.515000", "112719.515000", "112719.515000", "112719.515000", "112719.515000", "112719.515000", "112719.515000", "112719.531000", "112719.531000", "112719.531000", "112719.531000", "112719.531000", "112719.531000", "112719.531000", "112719.546000", "112719.546000", "112719.546000", "112719.546000", "112759.500000", "112759.500000", "112759.515000", "112759.515000", "112759.515000", "112759.515000", "112759.515000", "112759.531000", "112759.531000", "112759.531000", "112759.531000", "112759.531000", "112759.531000", "112759.531000", "112759.531000", "112759.546000", "112759.546000", "112759.546000", "112759.546000", "112759.546000", "112839.500000", "112839.500000", "112839.515000", "112839.515000", "112839.515000", "112839.515000", "112839.515000", "112839.515000", "112839.515000", "112839.531000", "112839.531000", "112839.531000", "112839.531000", "112839.531000", "112839.531000", "112839.531000", "112839.531000", "112839.546000", "112839.546000", "112839.546000", "112919.500000", "112919.500000", "112919.515000", "112919.515000", "112919.515000", "112919.515000", "112919.515000", "112919.515000", "112919.531000", "112919.531000", "112919.531000", "112919.531000", "112919.531000", "112919.531000", "112919.531000", "112919.531000", "112919.546000", "112919.546000", "112919.546000", "112919.546000", "112959.500000", "112959.500000", "112959.515000", "112959.515000", "112959.515000", "112959.515000", "112959.515000", "112959.515000", "112959.515000", "112959.531000", "112959.531000", "112959.546000", "112959.546000", "112959.546000", "112959.546000", "112959.546000", "112959.546000", "112959.562000", "112959.562000", "112959.562000", "113007.015000", "113007.015000", "113007.031000", "113007.031000"],
      "InstanceCreationTime": ["112259.515000", "112259.515000", "112259.515000", "112259.515000", "112259.515000", "112259.515000", "112259.515000", "112259.531000", "112259.531000", "112259.531000", "112259.531000", "112259.531000", "112259.531000", "112259.531000", "112259.531000", "112259.546000", "112259.546000", "112259.546000", "112259.546000", "112259.562000", "112259.562000", "112259.562000", "112259.562000", "112259.562000", "112259.562000", "112259.562000", "112339.500000", "112339.500000", "112339.515000", "112339.515000", "112339.515000", "112339.515000", "112339.515000", "112339.515000", "112339.515000", "112339.531000", "112339.531000", "112339.531000", "112339.531000", "112339.531000", "112339.531000", "112339.531000", "112339.546000", "112339.546000", "112339.546000", "112339.546000", "112419.500000", "112419.515000", "112419.515000", "112419.515000", "112419.515000", "112419.515000", "112419.515000", "112419.515000", "112419.515000", "112419.531000", "112419.531000", "112419.531000", "112419.531000", "112419.531000", "112419.531000", "112419.531000", "112419.546000", "112419.546000", "112419.546000", "112419.546000", "112459.500000", "112459.500000", "112459.515000", "112459.515000", "112459.515000", "112459.515000", "112459.515000", "112459.515000", "112459.515000", "112459.531000", "112459.531000", "112459.531000", "112459.531000", "112459.531000", "112459.531000", "112459.531000", "112459.531000", "112459.546000", "112459.546000", "112459.546000", "112539.500000", "112539.500000", "112539.515000", "112539.515000", "112539.515000", "112539.515000", "112539.515000", "112539.515000", "112539.515000", "112539.531000", "112539.531000", "112539.531000", "112539.531000", "112539.531000", "112539.531000", "112539.531000", "112539.546000", "112539.546000", "112539.546000", "112539.546000", "112559.500000", "112559.500000", "112559.515000", "112559.515000", "112559.515000", "112559.515000", "112559.515000", "112559.515000", "112559.515000", "112559.531000", "112639.500000", "112639.500000", "112639.515000", "112639.515000", "112639.515000", "112639.515000", "112639.515000", "112639.515000", "112639.515000", "112639.531000", "112639.531000", "112639.531000", "112639.531000", "112639.531000", "112639.531000", "112639.531000", "112639.546000", "112639.546000", "112639.546000", "112639.546000", "112719.500000", "112719.500000", "112719.515000", "112719.515000", "112719.515000", "112719.515000", "112719.515000", "112719.515000", "112719.515000", "112719.531000", "112719.531000", "112719.531000", "112719.531000", "112719.531000", "112719.531000", "112719.531000", "112719.546000", "112719.546000", "112719.546000", "112719.546000", "112759.500000", "112759.500000", "112759.515000", "112759.515000", "112759.515000", "112759.515000", "112759.515000", "112759.531000", "112759.531000", "112759.531000", "112759.531000", "112759.531000", "112759.531000", "112759.531000", "112759.531000", "112759.546000", "112759.546000", "112759.546000", "112759.546000", "112759.546000", "112839.500000", "112839.500000", "112839.515000", "112839.515000", "112839.515000", "112839.515000", "112839.515000", "112839.515000", "112839.515000", "112839.531000", "112839.531000", "112839.531000", "112839.531000", "112839.531000", "112839.531000", "112839.531000", "112839.531000", "112839.546000", "112839.546000", "112839.546000", "112919.500000", "112919.500000", "112919.515000", "112919.515000", "112919.515000", "112919.515000", "112919.515000", "112919.515000", "112919.531000", "112919.531000", "112919.531000", "112919.531000", "112919.531000", "112919.531000", "112919.531000", "112919.531000", "112919.546000", "112919.546000", "112919.546000", "112919.546000", "112959.500000", "112959.500000", "112959.515000", "112959.515000", "112959.515000", "112959.515000", "112959.515000", "112959.515000", "112959.515000", "112959.531000", "112959.531000", "112959.546000", "112959.546000", "112959.546000", "112959.546000", "112959.546000", "112959.546000", "112959.562000", "112959.562000", "112959.562000", "113007.015000", "113007.015000", "113007.031000", "113007.031000"],
      "InstanceNumber": [1, 2, 3, 4, 5, 6, 7, 8, 9, 10, 11, 12, 13, 14, 15, 16, 17, 18, 19, 20, 21, 22, 23, 24, 25, 26, 27, 28, 29, 30, 31, 32, 33, 34, 35, 36, 37, 38, 39, 40, 41, 42, 43, 44, 45, 46, 47, 48, 49, 50, 51, 52, 53, 54, 55, 56, 57, 58, 59, 60, 61, 62, 63, 64, 65, 66, 67, 68, 69, 70, 71, 72, 73, 74, 75, 76, 77, 78, 79, 80, 81, 82, 83, 84, 85, 86, 87, 88, 89, 90, 91, 92, 93, 94, 95, 96, 97, 98, 99, 100, 101, 102, 103, 104, 105, 106, 107, 108, 109, 110, 111, 112, 113, 114, 115, 116, 117, 118, 119, 120, 121, 122, 123, 124, 125, 126, 127, 128, 129, 130, 131, 132, 133, 134, 135, 136, 137, 138, 139, 140, 141, 142, 143, 144, 145, 146, 147, 148, 149, 150, 151, 152, 153, 154, 155, 156, 157, 158, 159, 160, 161, 162, 163, 164, 165, 166, 167, 168, 169, 170, 171, 172, 173, 174, 175, 176, 177, 178, 179, 180, 181, 182, 183, 184, 185, 186, 187, 188, 189, 190, 191, 192, 193, 194, 195, 196, 197, 198, 199, 200, 201, 202, 203, 204, 205, 206, 207, 208, 209, 210, 211, 212, 213, 214, 215, 216, 217, 218, 219, 220, 221, 222, 223, 224, 225, 226, 227, 228, 229, 230, 231, 232, 233, 234, 235, 236, 237, 238, 239, 240],
      "LargestImagePixelValue": [1628, 1558, 1498, 1527, 1488, 1501, 1497, 1464, 1506, 1470, 1429, 1491, 1509, 1468, 1480, 1518, 1480, 1444, 1464, 1425, 1437, 1504, 1460, 1477, 1482, 1483, 1475, 1488, 1502, 1470, 1456, 1493, 1490, 1446, 1457, 1438, 1452, 1465, 1467, 1447, 1456, 1462, 1463, 1464, 1457, 1451, 1450, 1451, 1431, 1464, 1473, 1449, 1447, 1461, 1476, 1465, 1467, 1488, 1460, 1475, 1495, 1453, 1486, 1468, 1472, 1504, 1472, 1485, 1473, 1437, 1483, 1481, 1508, 1482, 1514, 1506, 1515, 1502, 1477, 1553, 1501, 1454, 1529, 1479, 1526, 1573, 1478, 1448, 1475, 1477, 1477, 1487, 1522, 1535, 1532, 1511, 1468, 1534, 1534, 1511, 1589, 1538, 1459, 1458, 1482, 1469, 1500, 1490, 1453, 1504, 1477, 1470, 1480, 1538, 1498, 1493, 1570, 1466, 1503, 1505, 1494, 1507, 1479, 1502, 1472, 1493, 1506, 1502, 1508, 1514, 1508, 1482, 1528, 1516, 1505, 1471, 1481, 1521, 1493, 1504, 1493, 1499, 1480, 1507, 1468, 1437, 1462, 1478, 1455, 1450, 1445, 1452, 1426, 1434, 1444, 1428, 1413, 1414, 1415, 1452, 1443, 1413, 1414, 1423, 1408, 1439, 1449, 1433, 1428, 1418, 1440, 1416, 1440, 1419, 1448, 1451, 1436, 1493, 1427, 1488, 1423, 1487, 1434, 1427, 1544, 1503, 1374, 1389, 1416, 1417, 1449, 1441, 1453, 1445, 1468, 1458, 1456, 1461, 1432, 1488, 1465, 1465, 1450, 1460, 1456, 1458, 1463, 1462, 1463, 1473, 1470, 1450, 1496, 1483, 1453, 1488, 1493, 1468, 1511, 1479, 1457, 1474, 1461, 1462, 1451, 1453, 1466, 1465, 1459, 1494, 1542, 1496, 1495, 1498, 1446, 1477, 1497, 1459, 1505, 1467],
      "WindowCenter": [615.0, 612.0, 610.0, 610.0, 610.0, 610.0, 611.0, 610.0, 610.0, 610.0, 609.0, 610.0, 611.0, 610.0, 610.0, 612.0, 610.0, 607.0, 608.0, 607.0, 607.0, 608.0, 607.0, 608.0, 608.0, 607.0, 607.0, 607.0, 607.0, 607.0, 606.0, 608.0, 609.0, 608.0, 607.0, 606.0, 607.0, 606.0, 606.0, 605.0, 606.0, 606.0, 607.0, 607.0, 607.0, 607.0, 607.0, 608.0, 607.0, 608.0, 609.0, 609.0, 607.0, 606.0, 607.0, 607.0, 607.0, 606.0, 606.0, 607.0, 607.0, 607.0, 607.0, 609.0, 608.0, 609.0, 607.0, 606.0, 607.0, 605.0, 606.0, 605.0, 606.0, 606.0, 606.0, 606.0, 606.0, 606.0, 609.0, 611.0, 607.0, 607.0, 606.0, 606.0, 612.0, 613.0, 609.0, 608.0, 607.0, 608.0, 608.0, 609.0, 609.0, 609.0, 610.0, 610.0, 608.0, 610.0, 610.0, 613.0, 615.0, 612.0, 608.0, 608.0, 609.0, 608.0, 609.0, 608.0, 607.0, 608.0, 609.0, 609.0, 609.0, 610.0, 610.0, 611.0, 614.0, 608.0, 611.0, 611.0, 608.0, 609.0, 609.0, 606.0, 605.0, 605.0, 605.0, 606.0, 606.0, 608.0, 608.0, 611.0, 612.0, 611.0, 610.0, 609.0, 609.0, 609.0, 608.0, 608.0, 609.0, 608.0, 609.0, 611.0, 606.0, 606.0, 607.0, 608.0, 609.0, 606.0, 605.0, 605.0, 605.0, 608.0, 608.0, 607.0, 607.0, 606.0, 606.0, 606.0, 605.0, 605.0, 605.0, 606.0, 607.0, 608.0, 607.0, 607.0, 606.0, 605.0, 606.0, 605.0, 606.0, 607.0, 607.0, 608.0, 609.0, 608.0, 607.0, 609.0, 605.0, 605.0, 602.0, 601.0, 607.0, 597.0, 590.0, 598.0, 603.0, 604.0, 604.0, 604.0, 604.0, 604.0, 604.0, 604.0, 604.0, 604.0, 605.0, 606.0, 604.0, 604.0, 604.0, 604.0, 603.0, 602.0, 602.0, 602.0, 602.0, 604.0, 605.0, 605.0, 606.0, 606.0, 606.0, 606.0, 606.0, 605.0, 605.0, 605.0, 605.0, 605.0, 605.0, 605.0, 605.0, 605.0, 606.0, 605.0, 605.0, 607.0, 610.0, 612.0, 608.0, 605.0, 604.0, 604.0, 604.0, 605.0, 605.0, 605.0],
      "WindowWidth": [1284.0, 1276.0, 1272.0, 1271.0, 1271.0, 1271.0, 1274.0, 1272.0, 1271.0, 1270.0, 1269.0, 1272.0, 1273.0, 1271.0, 1270.0, 1275.0, 1271.0, 1264.0, 1266.0, 1266.0, 1265.0, 1266.0, 1266.0, 1266.0, 1267.0, 1266.0, 1266.0, 1265.0, 1265.0, 1264.0, 1263.0, 1266.0, 1268.0, 1267.0, 1265.0, 1264.0, 1265.0, 1263.0, 1263.0, 1261.0, 1262.0, 1263.0, 1264.0, 1266.0, 1265.0, 1266.0, 1266.0, 1266.0, 1266.0, 1267.0, 1268.0, 1269.0, 1266.0, 1264.0, 1264.0, 1264.0, 1265.0, 1263.0, 1262.0, 1264.0, 1265.0, 1264.0, 1266.0, 1269.0, 1267.0, 1270.0, 1266.0, 1264.0, 1265.0, 1262.0, 1264.0, 1262.0, 1263.0, 1263.0, 1263.0, 1262.0, 1263.0, 1264.0, 1270.0, 1274.0, 1266.0, 1265.0, 1263.0, 1264.0, 1277.0, 1279.0, 1269.0, 1267.0, 1265.0, 1266.0, 1268.0, 1270.0, 1269.0, 1270.0, 1271.0, 1272.0, 1267.0, 1270.0, 1271.0, 1279.0, 1283.0, 1277.0, 1269.0, 1268.0, 1270.0, 1269.0, 1269.0, 1266.0, 1265.0, 1268.0, 1271.0, 1270.0, 1271.0, 1272.0, 1272.0, 1273.0, 1281.0, 1267.0, 1274.0, 1274.0, 1267.0, 1270.0, 1269.0, 1264.0, 1261.0, 1262.0, 1262.0, 1263.0, 1263.0, 1267.0, 1268.0, 1274.0, 1276.0, 1273.0, 1272.0, 1270.0, 1270.0, 1270.0, 1268.0, 1268.0, 1268.0, 1268.0, 1270.0, 1274.0, 1265.0, 1263.0, 1265.0, 1267.0, 1270.0, 1265.0, 1262.0, 1261.0, 1262.0, 1267.0, 1268.0, 1267.0, 1265.0, 1264.0, 1264.0, 1264.0, 1262.0, 1263.0, 1262.0, 1265.0, 1266.0, 1268.0, 1267.0, 1266.0, 1263.0, 1262.0, 1263.0, 1263.0, 1265.0, 1265.0, 1266.0, 1267.0, 1269.0, 1269.0, 1266.0, 1271.0, 1262.0, 1260.0, 1256.0, 1252.0, 1267.0, 1245.0, 1229.0, 1246.0, 1258.0, 1260.0, 1260.0, 1259.0, 1259.0, 1260.0, 1259.0, 1258.0, 1259.0, 1259.0, 1261.0, 1265.0, 1261.0, 1260.0, 1259.0, 1260.0, 1257.0, 1254.0, 1255.0, 1256.0, 1256.0, 1259.0, 1261.0, 1262.0, 1264.0, 1263.0, 1263.0, 1264.0, 1264.0, 1261.0, 1261.0, 1261.0, 1261.0, 1262.0, 1262.0, 1261.0, 1261.0, 1261.0, 1263.0, 1262.0, 1262.0, 1266.0, 1273.0, 1276.0, 1268.0, 1261.0, 1259.0, 1259.0, 1259.0, 1261.0, 1261.0, 1262.0]
    },
    "slices": {}
  }
}