{
  "AcquisitionMatrixPE": 68,
  "AcquisitionNumber": 1,
  "AcquisitionTime": "10:54:8.697500",
  "BandwidthPerPixelPhaseEncode": 31.289,
  "BaseResolution": 68,
  "CoilString": "C:HEP",
  "ConversionSoftware": "dcm2niix",
  "ConversionSoftwareVersion": "v1.0.20190902",
  "DerivedVendorReportedEchoSpacing": 0.000470002,
  "DeviceSerialNumber": "35450",
  "DwellTime": 3e-06,
  "EchoTime": 0.023,
  "EffectiveEchoSpacing": 0.000470002,
  "FlipAngle": 76,
  "ImageOrientationPatientDICOM": [0.999328, 0.0035122, 0.036475, -5.88464e-08, 0.995396, -0.0958458],
  "ImageType": [
    "ORIGINAL",
    "PRIMARY",
    "M",
    "ND",
    "MOSAIC"
],
  "ImagingFrequency": 123.218,
  "InPlanePhaseEncodingDirectionDICOM": "COL",
  "InstitutionAddress": "Univeristy_Ave._197_Newark_North_East_US_07102-1814",
  "InstitutionName": "RUBIC",
  "InstitutionalDepartmentName": "Department",
  "MRAcquisitionType": "2D",
  "MagneticFieldStrength": 3,
  "Manufacturer": "Siemens",
  "ManufacturersModelName": "TrioTim",
  "Modality": "MR",
  "PartialFourier": 1,
  "PatientPosition": "HFS",
  "PercentPhaseFOV": 100,
  "PhaseEncodingDirection": "j-",
  "PhaseEncodingSteps": 68,
  "PhaseResolution": 1,
  "PixelBandwidth": 2451,
  "ProcedureStepDescription": "Krekelberg_David",
  "ProtocolName": "ep2d_bold_CardGameEPI_2",
  "PulseSequenceDetails": "%SiemensSeq%_ep2d_bold",
  "ReceiveCoilName": "HeadMatrix",
  "ReconMatrixPE": 68,
  "RepetitionTime": 2,
  "SAR": 0.243225,
  "ScanOptions": "FS",
  "ScanningSequence": "EP",
  "SequenceName": "_epfid2d1_68",
  "SequenceVariant": "SK",
  "SeriesDescription": "ep2d_bold_CardGameEPI_2",
  "SeriesNumber": 7,
  "ShimSetting": [2171, -427, -7491, 1852, 778, 663, -1692, -78],
  "SliceThickness": 2.5,
  "SliceTiming": [1.9525, 1.895, 1.84, 1.785, 1.7275, 1.6725, 1.6175, 1.56, 1.505, 1.45, 1.3925, 1.3375, 1.2825, 1.2275, 1.17, 1.115, 1.06, 1.0025, 0.9475, 0.8925, 0.835, 0.78, 0.725, 0.67, 0.6125, 0.5575, 0.5025, 0.445, 0.39, 0.335, 0.2775, 0.2225, 0.1675, 0.11, 0.055, 0],
  "SoftwareVersions": "syngo_MR_B19",
  "SpacingBetweenSlices": 3,
  "StationName": "MRC35450",
  "TaskName": "cardgame",
  "TotalReadoutTime": 0.0314901,
  "TxRefAmp": 461.109,
  "dcmmeta_affine": [
    [-2.9979851245880127, -1.7653934492045664e-07, 0.10993113368749619, 100.00770568847656],
    [-0.010536608286201954, 2.9861886501312256, -0.28734415769577026, -70.78457641601562],
    [0.10942501574754715, 0.28753727674484253, 2.9841830730438232, -64.7544174194336],
    [0.0, 0.0, 0.0, 1.0]
],
  "dcmmeta_reorient_transform": [
    [0.0, -1.0, 0.0, 67.0],
    [1.0, 0.0, 0.0, 0.0],
    [0.0, 0.0, 1.0, 0.0],
    [0.0, 0.0, 0.0, 1.0]
],
  "dcmmeta_shape": [68, 68, 36, 258],
  "dcmmeta_slice_dim": 2,
  "dcmmeta_version": 0.6,
  "global": {
    "const": {
      "AcquisitionMatrix": [68, 0, 0, 68],
      "AngioFlag": "N",
      "BitsAllocated": 16,
      "BitsStored": 12,
      "Columns": 408,
      "EchoNumbers": 1,
      "EchoTime": 23.0,
      "EchoTrainLength": 1,
      "FlipAngle": 76.0,
      "HighBit": 11,
      "ImageOrientationPatient": [0.9993283936518, 0.0035122028204, 0.03647500613653, -5.8846447e-08, 0.99539619806099, -0.0958457557001],
      "ImagePositionPatient": [-609.66514615448, -638.73334667388, -15.21033976199],
      "ImageType": [
        "ORIGINAL",
        "PRIMARY",
        "M",
        "ND",
        "MOSAIC"
],
      "ImagedNucleus": "1H",
      "ImagingFrequency": 123.218482,
      "InPlanePhaseEncodingDirection": "COL",
      "MRAcquisitionType": "2D",
      "MagneticFieldStrength": 3.0,
      "Manufacturer": "SIEMENS",
      "ManufacturerModelName": "TrioTim",
      "Modality": "MR",
      "NumberOfAverages": 1.0,
      "NumberOfPhaseEncodingSteps": 68,
      "PercentPhaseFieldOfView": 100.0,
      "PercentSampling": 100.0,
      "PerformedProcedureStepStartTime": "102358.359000",
      "PhotometricInterpretation": "MONOCHROME2",
      "PixelBandwidth": 2451.0,
      "PixelRepresentation": 0,
      "PixelSpacing": [3.0, 3.0],
      "ProtocolName": "ep2d_bold_CardGameEPI_2",
      "RepetitionTime": 2000.0,
      "Rows": 408,
      "SAR": 0.24322486081382,
      "SamplesPerPixel": 1,
      "ScanOptions": "FS",
      "ScanningSequence": "EP",
      "SequenceName": "*epfid2d1_68",
      "SequenceVariant": "SK",
      "SeriesDescription": "ep2d_bold_CardGameEPI_2",
      "SeriesNumber": 7,
      "SeriesTime": "105459.500000",
      "SliceLocation": -53.968515180394,
      "SliceThickness": 2.5,
      "SmallestImagePixelValue": 0,
      "SoftwareVersions": "syngo MR B19",
      "SpacingBetweenSlices": 3.0000000136537,
      "SpecificCharacterSet": "ISO_IR 100",
      "StudyID": "1",
      "StudyTime": "102358.281000",
      "TransmitCoilName": "Body",
      "VariableFlipAngleFlag": "N",
      "WindowCenterWidthExplanation": "Algo1",
      "dBdt": 0.0},
    "slices": {}
  },
  "time": {
    "samples": {
      "AcquisitionNumber": [1, 2, 3, 4, 5, 6, 7, 8, 9, 10, 11, 12, 13, 14, 15, 16, 17, 18, 19, 20, 21, 22, 23, 24, 25, 26, 27, 28, 29, 30, 31, 32, 33, 34, 35, 36, 37, 38, 39, 40, 41, 42, 43, 44, 45, 46, 47, 48, 49, 50, 51, 52, 53, 54, 55, 56, 57, 58, 59, 60, 61, 62, 63, 64, 65, 66, 67, 68, 69, 70, 71, 72, 73, 74, 75, 76, 77, 78, 79, 80, 81, 82, 83, 84, 85, 86, 87, 88, 89, 90, 91, 92, 93, 94, 95, 96, 97, 98, 99, 100, 101, 102, 103, 104, 105, 106, 107, 108, 109, 110, 111, 112, 113, 114, 115, 116, 117, 118, 119, 120, 121, 122, 123, 124, 125, 126, 127, 128, 129, 130, 131, 132, 133, 134, 135, 136, 137, 138, 139, 140, 141, 142, 143, 144, 145, 146, 147, 148, 149, 150, 151, 152, 153, 154, 155, 156, 157, 158, 159, 160, 161, 162, 163, 164, 165, 166, 167, 168, 169, 170, 171, 172, 173, 174, 175, 176, 177, 178, 179, 180, 181, 182, 183, 184, 185, 186, 187, 188, 189, 190, 191, 192, 193, 194, 195, 196, 197, 198, 199, 200, 201, 202, 203, 204, 205, 206, 207, 208, 209, 210, 211, 212, 213, 214, 215, 216, 217, 218, 219, 220, 221, 222, 223, 224, 225, 226, 227, 228, 229, 230, 231, 232, 233, 234, 235, 236, 237, 238, 239, 240, 241, 242, 243, 244, 245, 246, 247, 248, 249, 250, 251, 252, 253, 254, 255, 256, 257, 258],
      "AcquisitionTime": ["105408.697500", "105410.705000", "105412.712500", "105414.720000", "105416.727500", "105418.737500", "105420.745000", "105422.752500", "105424.760000", "105426.767500", "105428.777500", "105430.785000", "105432.792500", "105434.800000", "105436.810000", "105438.817500", "105440.825000", "105442.832500", "105444.840000", "105446.850000", "105448.857500", "105450.865000", "105452.872500", "105454.880000", "105456.890000", "105458.897500", "105500.905000", "105502.912500", "105504.920000", "105506.930000", "105508.937500", "105510.945000", "105512.952500", "105514.962500", "105516.970000", "105518.977500", "105520.985000", "105522.992500", "105525.002500", "105527.010000", "105529.017500", "105531.025000", "105533.032500", "105535.042500", "105537.050000", "105539.057500", "105541.065000", "105543.075000", "105545.082500", "105547.090000", "105549.097500", "105551.105000", "105553.115000", "105555.122500", "105557.130000", "105559.137500", "105601.145000", "105603.155000", "105605.162500", "105607.170000", "105609.177500", "105611.187500", "105613.195000", "105615.202500", "105617.210000", "105619.217500", "105621.227500", "105623.235000", "105625.242500", "105627.250000", "105629.257500", "105631.267500", "105633.275000", "105635.282500", "105637.290000", "105639.297500", "105641.307500", "105643.315000", "105645.322500", "105647.330000", "105649.340000", "105651.347500", "105653.355000", "105655.362500", "105657.370000", "105659.380000", "105701.387500", "105703.395000", "105705.402500", "105707.410000", "105709.420000", "105711.427500", "105713.435000", "105715.442500", "105717.452500", "105719.460000", "105721.467500", "105723.475000", "105725.482500", "105727.492500", "105729.500000", "105731.507500", "105733.515000", "105735.522500", "105737.532500", "105739.540000", "105741.547500", "105743.555000", "105745.565000", "105747.572500", "105749.580000", "105751.587500", "105753.595000", "105755.605000", "105757.612500", "105759.620000", "105801.627500", "105803.635000", "105805.645000", "105807.652500", "105809.660000", "105811.667500", "105813.675000", "105815.685000", "105817.692500", "105819.700000", "105821.707500", "105823.717500", "105825.725000", "105827.732500", "105829.740000", "105831.747500", "105833.757500", "105835.765000", "105837.772500", "105839.780000", "105841.787500", "105843.797500", "105845.805000", "105847.812500", "105849.820000", "105851.830000", "105853.837500", "105855.845000", "105857.852500", "105859.860000", "105901.870000", "105903.877500", "105905.885000", "105907.892500", "105909.900000", "105911.910000", "105913.917500", "105915.925000", "105917.932500", "105919.942500", "105921.950000", "105923.957500", "105925.965000", "105927.972500", "105929.982500", "105931.990000", "105933.997500", "105936.005000", "105938.012500", "105940.022500", "105942.030000", "105944.037500", "105946.045000", "105948.052500", "105950.062500", "105952.070000", "105954.077500", "105956.085000", "105958.095000", "110000.102500", "110002.110000", "110004.117500", "110006.125000", "110008.135000", "110010.142500", "110012.150000", "110014.157500", "110016.165000", "110018.175000", "110020.182500", "110022.190000", "110024.197500", "110026.207500", "110028.215000", "110030.222500", "110032.230000", "110034.237500", "110036.247500", "110038.255000", "110040.262500", "110042.270000", "110044.277500", "110046.287500", "110048.295000", "110050.302500", "110052.310000", "110054.320000", "110056.327500", "110058.335000", "110100.342500", "110102.350000", "110104.360000", "110106.367500", "110108.375000", "110110.382500", "110112.390000", "110114.400000", "110116.407500", "110118.415000", "110120.422500", "110122.432500", "110124.440000", "110126.447500", "110128.455000", "110130.462500", "110132.472500", "110134.480000", "110136.487500", "110138.495000", "110140.502500", "110142.512500", "110144.520000", "110146.527500", "110148.535000", "110150.542500", "110152.552500", "110154.560000", "110156.567500", "110158.575000", "110200.585000", "110202.592500", "110204.600000", "110206.607500", "110208.615000", "110210.625000", "110212.632500", "110214.640000", "110216.647500", "110218.655000", "110220.665000", "110222.672500", "110224.680000", "110226.687500", "110228.697500", "110230.705000", "110232.712500", "110234.720000", "110236.727500", "110238.737500", "110240.745000", "110242.752500", "110244.760000"],
      "ContentTime": ["105459.515000", "105459.515000", "105459.515000", "105459.515000", "105459.515000", "105459.515000", "105459.515000", "105459.531000", "105459.531000", "105459.531000", "105459.531000", "105459.531000", "105459.531000", "105459.531000", "105459.531000", "105459.546000", "105459.546000", "105459.546000", "105459.546000", "105459.546000", "105459.546000", "105459.546000", "105459.562000", "105459.562000", "105459.562000", "105539.500000", "105539.500000", "105539.515000", "105539.515000", "105539.515000", "105539.515000", "105539.515000", "105539.515000", "105539.515000", "105539.515000", "105539.531000", "105539.531000", "105539.531000", "105539.531000", "105539.531000", "105539.531000", "105539.531000", "105539.546000", "105539.546000", "105539.546000", "105559.500000", "105559.500000", "105559.515000", "105559.515000", "105559.515000", "105559.515000", "105559.515000", "105559.515000", "105559.515000", "105559.515000", "105639.500000", "105639.500000", "105639.515000", "105639.515000", "105639.515000", "105639.515000", "105639.515000", "105639.515000", "105639.515000", "105639.531000", "105639.531000", "105639.531000", "105639.531000", "105639.531000", "105639.531000", "105639.531000", "105639.546000", "105639.546000", "105639.546000", "105639.546000", "105719.500000", "105719.515000", "105719.515000", "105719.515000", "105719.515000", "105719.515000", "105719.515000", "105719.515000", "105719.515000", "105719.531000", "105719.531000", "105719.531000", "105719.531000", "105719.531000", "105719.531000", "105719.531000", "105719.546000", "105719.546000", "105719.546000", "105719.546000", "105759.500000", "105759.500000", "105759.515000", "105759.515000", "105759.515000", "105759.515000", "105759.515000", "105759.515000", "105759.515000", "105759.531000", "105759.531000", "105759.531000", "105759.531000", "105759.531000", "105759.531000", "105759.531000", "105759.531000", "105759.546000", "105759.546000", "105759.546000", "105839.500000", "105839.500000", "105839.515000", "105839.515000", "105839.515000", "105839.515000", "105839.515000", "105839.515000", "105839.515000", "105839.531000", "105839.531000", "105839.531000", "105839.531000", "105839.531000", "105839.531000", "105839.531000", "105839.531000", "105839.546000", "105839.546000", "105839.546000", "105919.500000", "105919.500000", "105919.515000", "105919.515000", "105919.515000", "105919.515000", "105919.515000", "105919.515000", "105919.515000", "105919.531000", "105919.531000", "105919.531000", "105919.531000", "105919.531000", "105919.531000", "105919.531000", "105919.546000", "105919.546000", "105919.546000", "105919.546000", "105959.500000", "105959.500000", "105959.515000", "105959.515000", "105959.515000", "105959.515000", "105959.515000", "105959.515000", "105959.515000", "105959.531000", "105959.531000", "105959.531000", "105959.531000", "105959.531000", "105959.546000", "105959.546000", "105959.546000", "105959.546000", "105959.546000", "105959.562000", "110039.500000", "110039.500000", "110039.515000", "110039.515000", "110039.515000", "110039.515000", "110039.515000", "110039.515000", "110039.515000", "110039.531000", "110039.531000", "110039.531000", "110039.531000", "110039.531000", "110039.531000", "110039.546000", "110039.546000", "110039.546000", "110039.546000", "110039.546000", "110119.500000", "110119.500000", "110119.515000", "110119.515000", "110119.515000", "110119.515000", "110119.515000", "110119.515000", "110119.515000", "110119.531000", "110119.531000", "110119.531000", "110119.531000", "110119.531000", "110119.531000", "110119.531000", "110119.546000", "110119.546000", "110119.546000", "110119.546000", "110159.500000", "110159.500000", "110159.515000", "110159.515000", "110159.515000", "110159.515000", "110159.515000", "110159.515000", "110159.515000", "110159.531000", "110159.531000", "110159.531000", "110159.531000", "110159.531000", "110159.531000", "110159.531000", "110159.546000", "110159.546000", "110159.546000", "110159.546000", "110239.500000", "110239.500000", "110239.515000", "110239.515000", "110239.515000", "110239.515000", "110239.515000", "110239.515000", "110239.515000", "110239.531000", "110239.531000", "110239.531000", "110239.531000", "110239.531000", "110239.531000", "110239.531000", "110239.531000", "110239.546000", "110239.546000", "110239.546000", "110244.062000", "110244.062000", "110244.062000"],
      "InstanceCreationTime": ["105459.515000", "105459.515000", "105459.515000", "105459.515000", "105459.515000", "105459.515000", "105459.515000", "105459.531000", "105459.531000", "105459.531000", "105459.531000", "105459.531000", "105459.531000", "105459.531000", "105459.531000", "105459.546000", "105459.546000", "105459.546000", "105459.546000", "105459.546000", "105459.546000", "105459.546000", "105459.562000", "105459.562000", "105459.562000", "105539.500000", "105539.500000", "105539.515000", "105539.515000", "105539.515000", "105539.515000", "105539.515000", "105539.515000", "105539.515000", "105539.515000", "105539.531000", "105539.531000", "105539.531000", "105539.531000", "105539.531000", "105539.531000", "105539.531000", "105539.546000", "105539.546000", "105539.546000", "105559.500000", "105559.500000", "105559.515000", "105559.515000", "105559.515000", "105559.515000", "105559.515000", "105559.515000", "105559.515000", "105559.515000", "105639.500000", "105639.500000", "105639.515000", "105639.515000", "105639.515000", "105639.515000", "105639.515000", "105639.515000", "105639.515000", "105639.531000", "105639.531000", "105639.531000", "105639.531000", "105639.531000", "105639.531000", "105639.531000", "105639.546000", "105639.546000", "105639.546000", "105639.546000", "105719.500000", "105719.515000", "105719.515000", "105719.515000", "105719.515000", "105719.515000", "105719.515000", "105719.515000", "105719.515000", "105719.531000", "105719.531000", "105719.531000", "105719.531000", "105719.531000", "105719.531000", "105719.531000", "105719.546000", "105719.546000", "105719.546000", "105719.546000", "105759.500000", "105759.500000", "105759.515000", "105759.515000", "105759.515000", "105759.515000", "105759.515000", "105759.515000", "105759.515000", "105759.531000", "105759.531000", "105759.531000", "105759.531000", "105759.531000", "105759.531000", "105759.531000", "105759.531000", "105759.546000", "105759.546000", "105759.546000", "105839.500000", "105839.500000", "105839.515000", "105839.515000", "105839.515000", "105839.515000", "105839.515000", "105839.515000", "105839.515000", "105839.531000", "105839.531000", "105839.531000", "105839.531000", "105839.531000", "105839.531000", "105839.531000", "105839.531000", "105839.546000", "105839.546000", "105839.546000", "105919.500000", "105919.500000", "105919.515000", "105919.515000", "105919.515000", "105919.515000", "105919.515000", "105919.515000", "105919.515000", "105919.531000", "105919.531000", "105919.531000", "105919.531000", "105919.531000", "105919.531000", "105919.531000", "105919.546000", "105919.546000", "105919.546000", "105919.546000", "105959.500000", "105959.500000", "105959.515000", "105959.515000", "105959.515000", "105959.515000", "105959.515000", "105959.515000", "105959.515000", "105959.531000", "105959.531000", "105959.531000", "105959.531000", "105959.531000", "105959.546000", "105959.546000", "105959.546000", "105959.546000", "105959.546000", "105959.562000", "110039.500000", "110039.500000", "110039.515000", "110039.515000", "110039.515000", "110039.515000", "110039.515000", "110039.515000", "110039.515000", "110039.531000", "110039.531000", "110039.531000", "110039.531000", "110039.531000", "110039.531000", "110039.546000", "110039.546000", "110039.546000", "110039.546000", "110039.546000", "110119.500000", "110119.500000", "110119.515000", "110119.515000", "110119.515000", "110119.515000", "110119.515000", "110119.515000", "110119.515000", "110119.531000", "110119.531000", "110119.531000", "110119.531000", "110119.531000", "110119.531000", "110119.531000", "110119.546000", "110119.546000", "110119.546000", "110119.546000", "110159.500000", "110159.500000", "110159.515000", "110159.515000", "110159.515000", "110159.515000", "110159.515000", "110159.515000", "110159.515000", "110159.531000", "110159.531000", "110159.531000", "110159.531000", "110159.531000", "110159.531000", "110159.531000", "110159.546000", "110159.546000", "110159.546000", "110159.546000", "110239.500000", "110239.500000", "110239.515000", "110239.515000", "110239.515000", "110239.515000", "110239.515000", "110239.515000", "110239.515000", "110239.531000", "110239.531000", "110239.531000", "110239.531000", "110239.531000", "110239.531000", "110239.531000", "110239.531000", "110239.546000", "110239.546000", "110239.546000", "110244.062000", "110244.062000", "110244.062000"],
      "InstanceNumber": [1, 2, 3, 4, 5, 6, 7, 8, 9, 10, 11, 12, 13, 14, 15, 16, 17, 18, 19, 20, 21, 22, 23, 24, 25, 26, 27, 28, 29, 30, 31, 32, 33, 34, 35, 36, 37, 38, 39, 40, 41, 42, 43, 44, 45, 46, 47, 48, 49, 50, 51, 52, 53, 54, 55, 56, 57, 58, 59, 60, 61, 62, 63, 64, 65, 66, 67, 68, 69, 70, 71, 72, 73, 74, 75, 76, 77, 78, 79, 80, 81, 82, 83, 84, 85, 86, 87, 88, 89, 90, 91, 92, 93, 94, 95, 96, 97, 98, 99, 100, 101, 102, 103, 104, 105, 106, 107, 108, 109, 110, 111, 112, 113, 114, 115, 116, 117, 118, 119, 120, 121, 122, 123, 124, 125, 126, 127, 128, 129, 130, 131, 132, 133, 134, 135, 136, 137, 138, 139, 140, 141, 142, 143, 144, 145, 146, 147, 148, 149, 150, 151, 152, 153, 154, 155, 156, 157, 158, 159, 160, 161, 162, 163, 164, 165, 166, 167, 168, 169, 170, 171, 172, 173, 174, 175, 176, 177, 178, 179, 180, 181, 182, 183, 184, 185, 186, 187, 188, 189, 190, 191, 192, 193, 194, 195, 196, 197, 198, 199, 200, 201, 202, 203, 204, 205, 206, 207, 208, 209, 210, 211, 212, 213, 214, 215, 216, 217, 218, 219, 220, 221, 222, 223, 224, 225, 226, 227, 228, 229, 230, 231, 232, 233, 234, 235, 236, 237, 238, 239, 240, 241, 242, 243, 244, 245, 246, 247, 248, 249, 250, 251, 252, 253, 254, 255, 256, 257, 258],
      "LargestImagePixelValue": [1526, 1511, 1612, 1379, 1366, 1450, 1476, 1445, 1457, 1484, 1496, 1486, 1506, 1473, 1464, 1523, 1479, 1492, 1505, 1512, 1513, 1525, 1504, 1492, 1487, 1508, 1477, 1470, 1488, 1501, 1519, 1489, 1487, 1525, 1501, 1484, 1489, 1508, 1502, 1499, 1492, 1523, 1513, 1511, 1491, 1504, 1538, 1536, 1500, 1527, 1510, 1485, 1492, 1529, 1505, 1510, 1492, 1506, 1511, 1537, 1522, 1464, 1477, 1503, 1459, 1500, 1472, 1493, 1490, 1494, 1514, 1523, 1518, 1478, 1552, 1513, 1489, 1513, 1500, 1506, 1488, 1488, 1516, 1493, 1502, 1512, 1485, 1494, 1506, 1491, 1501, 1517, 1482, 1493, 1480, 1499, 1510, 1526, 1472, 1500, 1531, 1460, 1497, 1500, 1485, 1546, 1497, 1507, 1484, 1517, 1484, 1525, 1508, 1508, 1492, 1451, 1447, 1441, 1468, 1436, 1439, 1462, 1484, 1454, 1427, 1479, 1435, 1444, 1438, 1456, 1451, 1455, 1479, 1468, 1449, 1492, 1493, 1464, 1470, 1459, 1482, 1490, 1473, 1468, 1446, 1487, 1487, 1483, 1472, 1485, 1482, 1468, 1467, 1445, 1457, 1441, 1475, 1494, 1477, 1481, 1476, 1468, 1485, 1486, 1521, 1467, 1506, 1479, 1463, 1470, 1478, 1509, 1487, 1470, 1492, 1474, 1459, 1473, 1494, 1488, 1478, 1527, 1478, 1467, 1494, 1482, 1462, 1534, 1463, 1440, 1443, 1449, 1462, 1475, 1521, 1482, 1472, 1486, 1492, 1469, 1463, 1459, 1448, 1491, 1508, 1495, 1452, 1482, 1492, 1480, 1501, 1492, 1462, 1493, 1477, 1558, 1467, 1464, 1457, 1441, 1443, 1478, 1477, 1496, 1510, 1499, 1498, 1482, 1476, 1520, 1481, 1513, 1474, 1511, 1456, 1493, 1498, 1505, 1472, 1483, 1481, 1514, 1488, 1510, 1463, 1528, 1483, 1457, 1491, 1471, 1477, 1459, 1488, 1462, 1489, 1475, 1464, 1474],
      "WindowCenter": [609.0, 616.0, 603.0, 599.0, 602.0, 605.0, 606.0, 605.0, 606.0, 606.0, 606.0, 605.0, 606.0, 606.0, 606.0, 606.0, 606.0, 607.0, 607.0, 607.0, 607.0, 608.0, 607.0, 607.0, 606.0, 607.0, 608.0, 608.0, 608.0, 607.0, 606.0, 607.0, 606.0, 607.0, 607.0, 607.0, 607.0, 607.0, 607.0, 607.0, 607.0, 607.0, 607.0, 608.0, 608.0, 607.0, 607.0, 607.0, 607.0, 608.0, 608.0, 608.0, 608.0, 608.0, 607.0, 609.0, 609.0, 610.0, 609.0, 612.0, 609.0, 610.0, 611.0, 609.0, 608.0, 608.0, 607.0, 607.0, 607.0, 607.0, 608.0, 609.0, 610.0, 609.0, 610.0, 609.0, 609.0, 610.0, 609.0, 608.0, 608.0, 609.0, 609.0, 609.0, 610.0, 611.0, 610.0, 610.0, 610.0, 610.0, 609.0, 610.0, 609.0, 609.0, 609.0, 609.0, 609.0, 610.0, 609.0, 609.0, 609.0, 608.0, 610.0, 610.0, 610.0, 610.0, 610.0, 610.0, 610.0, 610.0, 609.0, 611.0, 612.0, 614.0, 612.0, 609.0, 608.0, 607.0, 606.0, 605.0, 605.0, 606.0, 607.0, 608.0, 608.0, 609.0, 609.0, 608.0, 608.0, 608.0, 609.0, 609.0, 609.0, 608.0, 608.0, 609.0, 609.0, 609.0, 609.0, 608.0, 609.0, 609.0, 610.0, 610.0, 609.0, 609.0, 610.0, 609.0, 608.0, 608.0, 608.0, 608.0, 609.0, 609.0, 609.0, 610.0, 610.0, 609.0, 609.0, 608.0, 608.0, 607.0, 607.0, 608.0, 609.0, 608.0, 609.0, 609.0, 609.0, 609.0, 609.0, 610.0, 610.0, 610.0, 610.0, 610.0, 610.0, 610.0, 610.0, 610.0, 610.0, 609.0, 610.0, 611.0, 610.0, 610.0, 610.0, 614.0, 612.0, 610.0, 609.0, 609.0, 611.0, 611.0, 611.0, 611.0, 611.0, 611.0, 611.0, 611.0, 611.0, 611.0, 610.0, 612.0, 611.0, 611.0, 611.0, 611.0, 612.0, 612.0, 612.0, 611.0, 611.0, 612.0, 612.0, 616.0, 614.0, 613.0, 611.0, 611.0, 609.0, 608.0, 608.0, 610.0, 611.0, 613.0, 613.0, 614.0, 613.0, 613.0, 612.0, 612.0, 612.0, 613.0, 614.0, 614.0, 614.0, 613.0, 613.0, 612.0, 613.0, 614.0, 613.0, 614.0, 613.0, 613.0, 612.0, 612.0, 613.0, 613.0, 613.0, 613.0, 613.0, 613.0, 613.0, 613.0, 612.0, 613.0],
      "WindowWidth": [1271.0, 1285.0, 1256.0, 1248.0, 1254.0, 1261.0, 1261.0, 1259.0, 1262.0, 1263.0, 1261.0, 1260.0, 1261.0, 1262.0, 1261.0, 1262.0, 1262.0, 1263.0, 1263.0, 1264.0, 1265.0, 1265.0, 1265.0, 1263.0, 1262.0, 1264.0, 1266.0, 1267.0, 1266.0, 1264.0, 1263.0, 1263.0, 1262.0, 1264.0, 1265.0, 1263.0, 1264.0, 1263.0, 1263.0, 1265.0, 1264.0, 1263.0, 1265.0, 1266.0, 1265.0, 1264.0, 1263.0, 1264.0, 1264.0, 1266.0, 1266.0, 1266.0, 1265.0, 1266.0, 1264.0, 1267.0, 1268.0, 1270.0, 1268.0, 1275.0, 1269.0, 1271.0, 1272.0, 1267.0, 1266.0, 1266.0, 1263.0, 1264.0, 1264.0, 1264.0, 1265.0, 1267.0, 1269.0, 1269.0, 1270.0, 1269.0, 1269.0, 1269.0, 1268.0, 1267.0, 1267.0, 1268.0, 1268.0, 1268.0, 1271.0, 1274.0, 1271.0, 1270.0, 1270.0, 1269.0, 1268.0, 1270.0, 1269.0, 1268.0, 1268.0, 1269.0, 1268.0, 1269.0, 1268.0, 1268.0, 1269.0, 1267.0, 1270.0, 1270.0, 1270.0, 1271.0, 1271.0, 1271.0, 1270.0, 1270.0, 1269.0, 1271.0, 1276.0, 1280.0, 1276.0, 1269.0, 1267.0, 1264.0, 1262.0, 1261.0, 1261.0, 1262.0, 1264.0, 1266.0, 1267.0, 1269.0, 1269.0, 1267.0, 1267.0, 1267.0, 1269.0, 1269.0, 1269.0, 1268.0, 1267.0, 1270.0, 1270.0, 1268.0, 1268.0, 1268.0, 1268.0, 1270.0, 1272.0, 1271.0, 1269.0, 1269.0, 1271.0, 1268.0, 1267.0, 1266.0, 1267.0, 1268.0, 1269.0, 1268.0, 1269.0, 1271.0, 1271.0, 1270.0, 1269.0, 1268.0, 1267.0, 1266.0, 1265.0, 1266.0, 1269.0, 1267.0, 1269.0, 1269.0, 1269.0, 1269.0, 1270.0, 1270.0, 1270.0, 1272.0, 1271.0, 1271.0, 1270.0, 1270.0, 1271.0, 1270.0, 1270.0, 1269.0, 1271.0, 1272.0, 1272.0, 1271.0, 1271.0, 1279.0, 1274.0, 1271.0, 1269.0, 1269.0, 1273.0, 1273.0, 1274.0, 1273.0, 1273.0, 1273.0, 1274.0, 1274.0, 1273.0, 1273.0, 1272.0, 1275.0, 1273.0, 1274.0, 1274.0, 1274.0, 1275.0, 1275.0, 1275.0, 1274.0, 1274.0, 1275.0, 1275.0, 1283.0, 1279.0, 1277.0, 1275.0, 1272.0, 1269.0, 1266.0, 1266.0, 1270.0, 1273.0, 1276.0, 1278.0, 1279.0, 1277.0, 1276.0, 1274.0, 1276.0, 1276.0, 1278.0, 1279.0, 1280.0, 1279.0, 1277.0, 1276.0, 1276.0, 1278.0, 1279.0, 1277.0, 1278.0, 1278.0, 1278.0, 1275.0, 1275.0, 1277.0, 1277.0, 1277.0, 1278.0, 1279.0, 1278.0, 1278.0, 1277.0, 1276.0, 1277.0]
    },
    "slices": {}
  }
}