{
  "AcquisitionMatrixPE": 68,
  "AcquisitionNumber": 1,
  "AcquisitionTime": "10:44:57.265000",
  "BandwidthPerPixelPhaseEncode": 31.289,
  "BaseResolution": 68,
  "CoilString": "C:HEP",
  "ConversionSoftware": "dcm2niix",
  "ConversionSoftwareVersion": "v1.0.20190902",
  "DerivedVendorReportedEchoSpacing": 0.000470002,
  "DeviceSerialNumber": "35450",
  "DwellTime": 3e-06,
  "EchoTime": 0.023,
  "EffectiveEchoSpacing": 0.000470002,
  "FlipAngle": 76,
  "ImageOrientationPatientDICOM": [0.999328, 0.0035122, 0.036475, -5.88464e-08, 0.995396, -0.0958458],
  "ImageType": [
    "ORIGINAL",
    "PRIMARY",
    "M",
    "ND",
    "MOSAIC"
],
  "ImagingFrequency": 123.218,
  "InPlanePhaseEncodingDirectionDICOM": "COL",
  "InstitutionAddress": "Univeristy_Ave._197_Newark_North_East_US_07102-1814",
  "InstitutionName": "RUBIC",
  "InstitutionalDepartmentName": "Department",
  "MRAcquisitionType": "2D",
  "MagneticFieldStrength": 3,
  "Manufacturer": "Siemens",
  "ManufacturersModelName": "TrioTim",
  "Modality": "MR",
  "PartialFourier": 1,
  "PatientPosition": "HFS",
  "PercentPhaseFOV": 100,
  "PhaseEncodingDirection": "j-",
  "PhaseEncodingSteps": 68,
  "PhaseResolution": 1,
  "PixelBandwidth": 2451,
  "ProcedureStepDescription": "Krekelberg_David",
  "ProtocolName": "ep2d_bold_RestEPI_1",
  "PulseSequenceDetails": "%SiemensSeq%_ep2d_bold",
  "ReceiveCoilName": "HeadMatrix",
  "ReconMatrixPE": 68,
  "RepetitionTime": 2,
  "SAR": 0.243173,
  "ScanOptions": "FS",
  "ScanningSequence": "EP",
  "SequenceName": "_epfid2d1_68",
  "SequenceVariant": "SK",
  "SeriesDescription": "ep2d_bold_RestEPI_1",
  "SeriesNumber": 6,
  "ShimSetting": [2171, -427, -7491, 1852, 778, 663, -1692, -78],
  "SliceThickness": 2.5,
  "SliceTiming": [1.9525, 1.8975, 1.8425, 1.785, 1.73, 1.675, 1.6175, 1.5625, 1.5075, 1.45, 1.395, 1.34, 1.285, 1.2275, 1.1725, 1.1175, 1.06, 1.005, 0.95, 0.8925, 0.8375, 0.7825, 0.725, 0.67, 0.615, 0.56, 0.5025, 0.4475, 0.3925, 0.335, 0.28, 0.225, 0.1675, 0.1125, 0.0575, 0],
  "SoftwareVersions": "syngo_MR_B19",
  "SpacingBetweenSlices": 3,
  "StationName": "MRC35450",
  "TaskName": "rest",
  "TotalReadoutTime": 0.0314901,
  "TxRefAmp": 461.109,
  "dcmmeta_affine": [
    [-2.9979851245880127, -1.7653934492045664e-07, 0.10993113368749619, 100.00770568847656],
    [-0.010536608286201954, 2.9861886501312256, -0.28734415769577026, -70.78457641601562],
    [0.10942501574754715, 0.28753727674484253, 2.9841830730438232, -64.7544174194336],
    [0.0, 0.0, 0.0, 1.0]
],
  "dcmmeta_reorient_transform": [
    [0.0, -1.0, 0.0, 67.0],
    [1.0, 0.0, 0.0, 0.0],
    [0.0, 0.0, 1.0, 0.0],
    [0.0, 0.0, 0.0, 1.0]
],
  "dcmmeta_shape": [68, 68, 36, 240],
  "dcmmeta_slice_dim": 2,
  "dcmmeta_version": 0.6,
  "global": {
    "const": {
      "AcquisitionMatrix": [68, 0, 0, 68],
      "AngioFlag": "N",
      "BitsAllocated": 16,
      "BitsStored": 12,
      "Columns": 408,
      "EchoNumbers": 1,
      "EchoTime": 23.0,
      "EchoTrainLength": 1,
      "FlipAngle": 76.0,
      "HighBit": 11,
      "ImageOrientationPatient": [0.9993283936518, 0.0035122028204, 0.03647500613653, -5.8846447e-08, 0.99539619806099, -0.0958457557001],
      "ImagePositionPatient": [-609.66514615448, -638.73334667388, -15.21033976199],
      "ImageType": [
        "ORIGINAL",
        "PRIMARY",
        "M",
        "ND",
        "MOSAIC"
],
      "ImagedNucleus": "1H",
      "ImagingFrequency": 123.218458,
      "InPlanePhaseEncodingDirection": "COL",
      "MRAcquisitionType": "2D",
      "MagneticFieldStrength": 3.0,
      "Manufacturer": "SIEMENS",
      "ManufacturerModelName": "TrioTim",
      "Modality": "MR",
      "NumberOfAverages": 1.0,
      "NumberOfPhaseEncodingSteps": 68,
      "PercentPhaseFieldOfView": 100.0,
      "PercentSampling": 100.0,
      "PerformedProcedureStepStartTime": "102358.359000",
      "PhotometricInterpretation": "MONOCHROME2",
      "PixelBandwidth": 2451.0,
      "PixelRepresentation": 0,
      "PixelSpacing": [3.0, 3.0],
      "ProtocolName": "ep2d_bold_RestEPI_1",
      "RepetitionTime": 2000.0,
      "Rows": 408,
      "SAR": 0.24317283616641,
      "SamplesPerPixel": 1,
      "ScanOptions": "FS",
      "ScanningSequence": "EP",
      "SequenceName": "*epfid2d1_68",
      "SequenceVariant": "SK",
      "SeriesDescription": "ep2d_bold_RestEPI_1",
      "SeriesNumber": 6,
      "SeriesTime": "104538.171000",
      "SliceLocation": -53.968515180394,
      "SliceThickness": 2.5,
      "SmallestImagePixelValue": 0,
      "SoftwareVersions": "syngo MR B19",
      "SpacingBetweenSlices": 3.0000000136537,
      "SpecificCharacterSet": "ISO_IR 100",
      "StudyID": "1",
      "StudyTime": "102358.281000",
      "TransmitCoilName": "Body",
      "VariableFlipAngleFlag": "N",
      "WindowCenterWidthExplanation": "Algo1",
      "dBdt": 0.0},
    "slices": {}
  },
  "time": {
    "samples": {
      "AcquisitionNumber": [1, 2, 3, 4, 5, 6, 7, 8, 9, 10, 11, 12, 13, 14, 15, 16, 17, 18, 19, 20, 21, 22, 23, 24, 25, 26, 27, 28, 29, 30, 31, 32, 33, 34, 35, 36, 37, 38, 39, 40, 41, 42, 43, 44, 45, 46, 47, 48, 49, 50, 51, 52, 53, 54, 55, 56, 57, 58, 59, 60, 61, 62, 63, 64, 65, 66, 67, 68, 69, 70, 71, 72, 73, 74, 75, 76, 77, 78, 79, 80, 81, 82, 83, 84, 85, 86, 87, 88, 89, 90, 91, 92, 93, 94, 95, 96, 97, 98, 99, 100, 101, 102, 103, 104, 105, 106, 107, 108, 109, 110, 111, 112, 113, 114, 115, 116, 117, 118, 119, 120, 121, 122, 123, 124, 125, 126, 127, 128, 129, 130, 131, 132, 133, 134, 135, 136, 137, 138, 139, 140, 141, 142, 143, 144, 145, 146, 147, 148, 149, 150, 151, 152, 153, 154, 155, 156, 157, 158, 159, 160, 161, 162, 163, 164, 165, 166, 167, 168, 169, 170, 171, 172, 173, 174, 175, 176, 177, 178, 179, 180, 181, 182, 183, 184, 185, 186, 187, 188, 189, 190, 191, 192, 193, 194, 195, 196, 197, 198, 199, 200, 201, 202, 203, 204, 205, 206, 207, 208, 209, 210, 211, 212, 213, 214, 215, 216, 217, 218, 219, 220, 221, 222, 223, 224, 225, 226, 227, 228, 229, 230, 231, 232, 233, 234, 235, 236, 237, 238, 239, 240],
      "AcquisitionTime": ["104457.265000", "104459.272500", "104501.282500", "104503.290000", "104505.297500", "104507.305000", "104509.312500", "104511.322500", "104513.330000", "104515.337500", "104517.345000", "104519.355000", "104521.362500", "104523.370000", "104525.377500", "104527.385000", "104529.395000", "104531.402500", "104533.410000", "104535.417500", "104537.425000", "104539.435000", "104541.442500", "104543.450000", "104545.457500", "104547.465000", "104549.475000", "104551.482500", "104553.490000", "104555.497500", "104557.507500", "104559.515000", "104601.522500", "104603.530000", "104605.537500", "104607.547500", "104609.555000", "104611.562500", "104613.570000", "104615.577500", "104617.587500", "104619.595000", "104621.602500", "104623.610000", "104625.620000", "104627.627500", "104629.635000", "104631.642500", "104633.650000", "104635.660000", "104637.667500", "104639.675000", "104641.682500", "104643.690000", "104645.700000", "104647.707500", "104649.715000", "104651.722500", "104653.732500", "104655.740000", "104657.747500", "104659.755000", "104701.762500", "104703.772500", "104705.780000", "104707.787500", "104709.795000", "104711.802500", "104713.812500", "104715.820000", "104717.827500", "104719.835000", "104721.842500", "104723.852500", "104725.860000", "104727.867500", "104729.875000", "104731.885000", "104733.892500", "104735.900000", "104737.907500", "104739.915000", "104741.925000", "104743.932500", "104745.940000", "104747.947500", "104749.955000", "104751.965000", "104753.972500", "104755.980000", "104757.987500", "104759.997500", "104802.005000", "104804.012500", "104806.020000", "104808.027500", "104810.037500", "104812.045000", "104814.052500", "104816.060000", "104818.067500", "104820.077500", "104822.085000", "104824.092500", "104826.100000", "104828.110000", "104830.117500", "104832.125000", "104834.132500", "104836.140000", "104838.150000", "104840.157500", "104842.165000", "104844.172500", "104846.180000", "104848.190000", "104850.197500", "104852.205000", "104854.212500", "104856.220000", "104858.230000", "104900.237500", "104902.245000", "104904.252500", "104906.262500", "104908.270000", "104910.277500", "104912.285000", "104914.292500", "104916.302500", "104918.310000", "104920.317500", "104922.325000", "104924.332500", "104926.342500", "104928.350000", "104930.357500", "104932.365000", "104934.375000", "104936.382500", "104938.390000", "104940.397500", "104942.405000", "104944.415000", "104946.422500", "104948.430000", "104950.437500", "104952.445000", "104954.455000", "104956.462500", "104958.470000", "105000.477500", "105002.487500", "105004.495000", "105006.502500", "105008.510000", "105010.517500", "105012.527500", "105014.535000", "105016.542500", "105018.550000", "105020.557500", "105022.567500", "105024.575000", "105026.582500", "105028.590000", "105030.600000", "105032.607500", "105034.615000", "105036.622500", "105038.630000", "105040.640000", "105042.647500", "105044.655000", "105046.662500", "105048.670000", "105050.680000", "105052.687500", "105054.695000", "105056.702500", "105058.710000", "105100.720000", "105102.727500", "105104.735000", "105106.742500", "105108.752500", "105110.760000", "105112.767500", "105114.775000", "105116.782500", "105118.792500", "105120.800000", "105122.807500", "105124.815000", "105126.822500", "105128.832500", "105130.840000", "105132.847500", "105134.855000", "105136.865000", "105138.872500", "105140.880000", "105142.887500", "105144.895000", "105146.905000", "105148.912500", "105150.920000", "105152.927500", "105154.935000", "105156.945000", "105158.952500", "105200.960000", "105202.967500", "105204.977500", "105206.985000", "105208.992500", "105211.000000", "105213.007500", "105215.017500", "105217.025000", "105219.032500", "105221.040000", "105223.047500", "105225.057500", "105227.065000", "105229.072500", "105231.080000", "105233.087500", "105235.097500", "105237.105000", "105239.112500", "105241.120000", "105243.130000", "105245.137500", "105247.145000", "105249.152500", "105251.160000", "105253.170000", "105255.177500", "105257.185000"],
      "ContentTime": ["104538.187000", "104538.187000", "104538.187000", "104538.187000", "104538.187000", "104538.187000", "104538.203000", "104538.203000", "104538.203000", "104538.203000", "104538.203000", "104538.203000", "104538.203000", "104538.203000", "104538.218000", "104538.218000", "104538.218000", "104538.218000", "104538.218000", "104538.218000", "104618.171000", "104618.171000", "104618.187000", "104618.187000", "104618.187000", "104618.187000", "104618.187000", "104618.187000", "104618.187000", "104618.203000", "104618.203000", "104618.203000", "104618.203000", "104618.203000", "104618.203000", "104618.218000", "104618.218000", "104618.218000", "104618.218000", "104618.218000", "104658.171000", "104658.171000", "104658.187000", "104658.187000", "104658.187000", "104658.187000", "104658.187000", "104658.187000", "104658.187000", "104658.203000", "104658.203000", "104658.203000", "104658.203000", "104658.203000", "104658.203000", "104658.203000", "104658.218000", "104658.218000", "104658.218000", "104658.218000", "104738.171000", "104738.187000", "104738.187000", "104738.187000", "104738.187000", "104738.187000", "104738.187000", "104738.187000", "104738.187000", "104738.203000", "104738.203000", "104738.203000", "104738.203000", "104738.203000", "104738.203000", "104738.203000", "104738.218000", "104738.218000", "104738.218000", "104738.218000", "104818.171000", "104818.171000", "104818.187000", "104818.187000", "104818.187000", "104818.187000", "104818.187000", "104818.187000", "104818.187000", "104818.203000", "104818.203000", "104818.203000", "104818.203000", "104818.203000", "104818.203000", "104818.203000", "104818.218000", "104818.218000", "104818.218000", "104818.218000", "104858.171000", "104858.171000", "104858.187000", "104858.187000", "104858.187000", "104858.187000", "104858.187000", "104858.187000", "104858.187000", "104858.203000", "104858.203000", "104858.203000", "104858.203000", "104858.203000", "104858.203000", "104858.203000", "104858.203000", "104858.218000", "104858.218000", "104858.218000", "104938.171000", "104938.171000", "104938.187000", "104938.187000", "104938.187000", "104938.187000", "104938.187000", "104938.187000", "104938.187000", "104938.203000", "104938.203000", "104938.203000", "104938.203000", "104938.203000", "104938.203000", "104938.203000", "104938.218000", "104938.218000", "104938.218000", "104938.218000", "105018.171000", "105018.187000", "105018.187000", "105018.187000", "105018.187000", "105018.187000", "105018.187000", "105018.187000", "105018.203000", "105018.203000", "105018.203000", "105018.203000", "105018.203000", "105018.203000", "105018.218000", "105018.218000", "105018.218000", "105018.218000", "105018.218000", "105018.218000", "105058.171000", "105058.171000", "105058.187000", "105058.187000", "105058.187000", "105058.187000", "105058.187000", "105058.187000", "105058.187000", "105058.203000", "105058.203000", "105058.203000", "105058.203000", "105058.203000", "105058.203000", "105058.203000", "105058.218000", "105058.218000", "105058.218000", "105058.218000", "105138.171000", "105138.171000", "105138.187000", "105138.187000", "105138.187000", "105138.187000", "105138.187000", "105138.187000", "105138.187000", "105138.203000", "105138.203000", "105138.203000", "105138.203000", "105138.203000", "105138.203000", "105138.203000", "105138.218000", "105138.218000", "105138.218000", "105138.218000", "105218.171000", "105218.171000", "105218.187000", "105218.187000", "105218.187000", "105218.187000", "105218.187000", "105218.187000", "105218.187000", "105218.203000", "105218.203000", "105218.203000", "105218.203000", "105218.203000", "105218.203000", "105218.203000", "105218.218000", "105218.218000", "105218.218000", "105218.218000", "105256.500000", "105256.500000", "105256.500000", "105256.500000", "105256.500000", "105256.515000", "105256.515000", "105256.515000", "105256.515000", "105256.515000", "105256.515000", "105256.515000", "105256.531000", "105256.531000", "105256.531000", "105256.531000", "105256.531000", "105256.531000", "105256.531000", "105256.546000"],
      "InstanceCreationTime": ["104538.187000", "104538.187000", "104538.187000", "104538.187000", "104538.187000", "104538.187000", "104538.203000", "104538.203000", "104538.203000", "104538.203000", "104538.203000", "104538.203000", "104538.203000", "104538.203000", "104538.218000", "104538.218000", "104538.218000", "104538.218000", "104538.218000", "104538.218000", "104618.171000", "104618.171000", "104618.187000", "104618.187000", "104618.187000", "104618.187000", "104618.187000", "104618.187000", "104618.187000", "104618.203000", "104618.203000", "104618.203000", "104618.203000", "104618.203000", "104618.203000", "104618.218000", "104618.218000", "104618.218000", "104618.218000", "104618.218000", "104658.171000", "104658.171000", "104658.187000", "104658.187000", "104658.187000", "104658.187000", "104658.187000", "104658.187000", "104658.187000", "104658.203000", "104658.203000", "104658.203000", "104658.203000", "104658.203000", "104658.203000", "104658.203000", "104658.218000", "104658.218000", "104658.218000", "104658.218000", "104738.171000", "104738.187000", "104738.187000", "104738.187000", "104738.187000", "104738.187000", "104738.187000", "104738.187000", "104738.187000", "104738.203000", "104738.203000", "104738.203000", "104738.203000", "104738.203000", "104738.203000", "104738.203000", "104738.218000", "104738.218000", "104738.218000", "104738.218000", "104818.171000", "104818.171000", "104818.187000", "104818.187000", "104818.187000", "104818.187000", "104818.187000", "104818.187000", "104818.187000", "104818.203000", "104818.203000", "104818.203000", "104818.203000", "104818.203000", "104818.203000", "104818.203000", "104818.218000", "104818.218000", "104818.218000", "104818.218000", "104858.171000", "104858.171000", "104858.187000", "104858.187000", "104858.187000", "104858.187000", "104858.187000", "104858.187000", "104858.187000", "104858.203000", "104858.203000", "104858.203000", "104858.203000", "104858.203000", "104858.203000", "104858.203000", "104858.203000", "104858.218000", "104858.218000", "104858.218000", "104938.171000", "104938.171000", "104938.187000", "104938.187000", "104938.187000", "104938.187000", "104938.187000", "104938.187000", "104938.187000", "104938.203000", "104938.203000", "104938.203000", "104938.203000", "104938.203000", "104938.203000", "104938.203000", "104938.218000", "104938.218000", "104938.218000", "104938.218000", "105018.171000", "105018.187000", "105018.187000", "105018.187000", "105018.187000", "105018.187000", "105018.187000", "105018.187000", "105018.203000", "105018.203000", "105018.203000", "105018.203000", "105018.203000", "105018.203000", "105018.218000", "105018.218000", "105018.218000", "105018.218000", "105018.218000", "105018.218000", "105058.171000", "105058.171000", "105058.187000", "105058.187000", "105058.187000", "105058.187000", "105058.187000", "105058.187000", "105058.187000", "105058.203000", "105058.203000", "105058.203000", "105058.203000", "105058.203000", "105058.203000", "105058.203000", "105058.218000", "105058.218000", "105058.218000", "105058.218000", "105138.171000", "105138.171000", "105138.187000", "105138.187000", "105138.187000", "105138.187000", "105138.187000", "105138.187000", "105138.187000", "105138.203000", "105138.203000", "105138.203000", "105138.203000", "105138.203000", "105138.203000", "105138.203000", "105138.218000", "105138.218000", "105138.218000", "105138.218000", "105218.171000", "105218.171000", "105218.187000", "105218.187000", "105218.187000", "105218.187000", "105218.187000", "105218.187000", "105218.187000", "105218.203000", "105218.203000", "105218.203000", "105218.203000", "105218.203000", "105218.203000", "105218.203000", "105218.218000", "105218.218000", "105218.218000", "105218.218000", "105256.500000", "105256.500000", "105256.500000", "105256.500000", "105256.500000", "105256.515000", "105256.515000", "105256.515000", "105256.515000", "105256.515000", "105256.515000", "105256.515000", "105256.531000", "105256.531000", "105256.531000", "105256.531000", "105256.531000", "105256.531000", "105256.531000", "105256.546000"],
      "InstanceNumber": [1, 2, 3, 4, 5, 6, 7, 8, 9, 10, 11, 12, 13, 14, 15, 16, 17, 18, 19, 20, 21, 22, 23, 24, 25, 26, 27, 28, 29, 30, 31, 32, 33, 34, 35, 36, 37, 38, 39, 40, 41, 42, 43, 44, 45, 46, 47, 48, 49, 50, 51, 52, 53, 54, 55, 56, 57, 58, 59, 60, 61, 62, 63, 64, 65, 66, 67, 68, 69, 70, 71, 72, 73, 74, 75, 76, 77, 78, 79, 80, 81, 82, 83, 84, 85, 86, 87, 88, 89, 90, 91, 92, 93, 94, 95, 96, 97, 98, 99, 100, 101, 102, 103, 104, 105, 106, 107, 108, 109, 110, 111, 112, 113, 114, 115, 116, 117, 118, 119, 120, 121, 122, 123, 124, 125, 126, 127, 128, 129, 130, 131, 132, 133, 134, 135, 136, 137, 138, 139, 140, 141, 142, 143, 144, 145, 146, 147, 148, 149, 150, 151, 152, 153, 154, 155, 156, 157, 158, 159, 160, 161, 162, 163, 164, 165, 166, 167, 168, 169, 170, 171, 172, 173, 174, 175, 176, 177, 178, 179, 180, 181, 182, 183, 184, 185, 186, 187, 188, 189, 190, 191, 192, 193, 194, 195, 196, 197, 198, 199, 200, 201, 202, 203, 204, 205, 206, 207, 208, 209, 210, 211, 212, 213, 214, 215, 216, 217, 218, 219, 220, 221, 222, 223, 224, 225, 226, 227, 228, 229, 230, 231, 232, 233, 234, 235, 236, 237, 238, 239, 240],
      "LargestImagePixelValue": [1619, 1532, 1517, 1513, 1513, 1519, 1495, 1511, 1496, 1524, 1493, 1522, 1511, 1508, 1496, 1502, 1538, 1527, 1486, 1539, 1523, 1497, 1514, 1487, 1496, 1484, 1513, 1536, 1490, 1524, 1526, 1489, 1495, 1509, 1489, 1506, 1515, 1538, 1515, 1511, 1494, 1531, 1514, 1525, 1532, 1552, 1491, 1492, 1491, 1529, 1511, 1502, 1523, 1490, 1483, 1475, 1476, 1494, 1502, 1483, 1515, 1533, 1482, 1487, 1528, 1504, 1515, 1475, 1505, 1467, 1500, 1489, 1498, 1507, 1489, 1497, 1499, 1521, 1505, 1511, 1482, 1501, 1534, 1500, 1493, 1492, 1515, 1539, 1520, 1480, 1490, 1504, 1547, 1523, 1539, 1506, 1477, 1537, 1469, 1497, 1515, 1517, 1497, 1481, 1522, 1498, 1528, 1487, 1505, 1517, 1515, 1494, 1528, 1529, 1525, 1494, 1512, 1485, 1522, 1497, 1501, 1506, 1521, 1486, 1499, 1510, 1499, 1511, 1516, 1545, 1518, 1513, 1479, 1512, 1515, 1470, 1501, 1532, 1500, 1516, 1541, 1512, 1502, 1476, 1473, 1501, 1507, 1487, 1502, 1514, 1527, 1513, 1509, 1516, 1598, 1391, 1477, 1441, 1452, 1459, 1475, 1467, 1467, 1484, 1497, 1475, 1510, 1466, 1467, 1535, 1468, 1486, 1477, 1517, 1450, 1460, 1493, 1463, 1496, 1478, 1502, 1484, 1462, 1487, 1454, 1487, 1480, 1477, 1494, 1480, 1471, 1474, 1464, 1468, 1477, 1476, 1492, 1522, 1471, 1484, 1486, 1499, 1460, 1466, 1465, 1485, 1477, 1497, 1480, 1457, 1499, 1459, 1480, 1478, 1499, 1483, 1465, 1481, 1467, 1465, 1483, 1485, 1492, 1469, 1483, 1474, 1475, 1483, 1503, 1473, 1464, 1496, 1470, 1475, 1510, 1497, 1515, 1482, 1467, 1491],
      "WindowCenter": [615.0, 612.0, 610.0, 611.0, 610.0, 609.0, 609.0, 609.0, 608.0, 609.0, 609.0, 610.0, 610.0, 609.0, 610.0, 609.0, 609.0, 608.0, 608.0, 609.0, 609.0, 609.0, 609.0, 609.0, 610.0, 609.0, 610.0, 610.0, 610.0, 611.0, 610.0, 610.0, 610.0, 610.0, 611.0, 610.0, 610.0, 610.0, 610.0, 611.0, 610.0, 611.0, 610.0, 611.0, 615.0, 612.0, 608.0, 608.0, 608.0, 609.0, 611.0, 612.0, 611.0, 609.0, 608.0, 607.0, 606.0, 606.0, 606.0, 607.0, 609.0, 610.0, 610.0, 609.0, 609.0, 609.0, 609.0, 608.0, 608.0, 608.0, 609.0, 609.0, 610.0, 611.0, 610.0, 610.0, 609.0, 609.0, 609.0, 609.0, 609.0, 610.0, 611.0, 610.0, 610.0, 610.0, 610.0, 610.0, 611.0, 610.0, 611.0, 611.0, 611.0, 611.0, 611.0, 611.0, 610.0, 611.0, 611.0, 611.0, 611.0, 611.0, 610.0, 610.0, 610.0, 611.0, 611.0, 611.0, 611.0, 610.0, 610.0, 609.0, 610.0, 611.0, 610.0, 611.0, 612.0, 611.0, 612.0, 611.0, 611.0, 611.0, 611.0, 611.0, 611.0, 611.0, 610.0, 611.0, 612.0, 612.0, 612.0, 612.0, 611.0, 611.0, 611.0, 611.0, 611.0, 611.0, 611.0, 612.0, 612.0, 611.0, 610.0, 611.0, 612.0, 612.0, 613.0, 613.0, 613.0, 613.0, 612.0, 612.0, 611.0, 614.0, 616.0, 605.0, 611.0, 608.0, 610.0, 609.0, 610.0, 610.0, 610.0, 610.0, 611.0, 610.0, 610.0, 609.0, 613.0, 611.0, 612.0, 612.0, 613.0, 610.0, 609.0, 609.0, 608.0, 606.0, 607.0, 607.0, 609.0, 610.0, 610.0, 611.0, 611.0, 611.0, 610.0, 609.0, 609.0, 609.0, 611.0, 611.0, 610.0, 610.0, 611.0, 614.0, 614.0, 614.0, 614.0, 612.0, 612.0, 611.0, 611.0, 611.0, 610.0, 610.0, 612.0, 614.0, 614.0, 613.0, 612.0, 610.0, 610.0, 611.0, 611.0, 611.0, 612.0, 612.0, 612.0, 612.0, 611.0, 611.0, 612.0, 612.0, 613.0, 613.0, 613.0, 613.0, 613.0, 612.0, 612.0, 613.0, 613.0, 612.0, 613.0, 613.0, 613.0, 613.0, 613.0, 614.0],
      "WindowWidth": [1281.0, 1274.0, 1271.0, 1272.0, 1271.0, 1269.0, 1267.0, 1268.0, 1267.0, 1269.0, 1269.0, 1269.0, 1270.0, 1270.0, 1269.0, 1267.0, 1267.0, 1266.0, 1265.0, 1268.0, 1267.0, 1268.0, 1268.0, 1269.0, 1270.0, 1269.0, 1270.0, 1270.0, 1271.0, 1272.0, 1271.0, 1271.0, 1271.0, 1271.0, 1272.0, 1271.0, 1271.0, 1271.0, 1270.0, 1272.0, 1271.0, 1272.0, 1270.0, 1273.0, 1280.0, 1275.0, 1268.0, 1266.0, 1267.0, 1269.0, 1273.0, 1274.0, 1274.0, 1269.0, 1267.0, 1265.0, 1262.0, 1261.0, 1262.0, 1265.0, 1268.0, 1272.0, 1271.0, 1269.0, 1269.0, 1269.0, 1269.0, 1268.0, 1268.0, 1267.0, 1269.0, 1269.0, 1272.0, 1273.0, 1271.0, 1270.0, 1270.0, 1268.0, 1269.0, 1269.0, 1269.0, 1272.0, 1273.0, 1272.0, 1272.0, 1271.0, 1270.0, 1270.0, 1272.0, 1271.0, 1272.0, 1272.0, 1273.0, 1272.0, 1274.0, 1273.0, 1272.0, 1272.0, 1272.0, 1273.0, 1273.0, 1272.0, 1272.0, 1270.0, 1271.0, 1273.0, 1273.0, 1273.0, 1273.0, 1271.0, 1270.0, 1269.0, 1271.0, 1272.0, 1272.0, 1273.0, 1275.0, 1274.0, 1275.0, 1274.0, 1273.0, 1273.0, 1273.0, 1273.0, 1273.0, 1273.0, 1272.0, 1273.0, 1275.0, 1276.0, 1274.0, 1275.0, 1274.0, 1274.0, 1273.0, 1272.0, 1273.0, 1273.0, 1274.0, 1274.0, 1275.0, 1273.0, 1272.0, 1272.0, 1275.0, 1276.0, 1277.0, 1278.0, 1278.0, 1276.0, 1275.0, 1275.0, 1274.0, 1279.0, 1287.0, 1259.0, 1274.0, 1268.0, 1270.0, 1270.0, 1272.0, 1272.0, 1270.0, 1272.0, 1272.0, 1271.0, 1271.0, 1270.0, 1277.0, 1274.0, 1275.0, 1276.0, 1278.0, 1271.0, 1269.0, 1269.0, 1267.0, 1263.0, 1264.0, 1265.0, 1268.0, 1271.0, 1272.0, 1273.0, 1273.0, 1272.0, 1272.0, 1269.0, 1270.0, 1270.0, 1272.0, 1272.0, 1272.0, 1272.0, 1273.0, 1279.0, 1280.0, 1280.0, 1279.0, 1276.0, 1274.0, 1274.0, 1273.0, 1273.0, 1271.0, 1272.0, 1275.0, 1279.0, 1280.0, 1278.0, 1275.0, 1272.0, 1271.0, 1273.0, 1273.0, 1273.0, 1275.0, 1276.0, 1275.0, 1275.0, 1274.0, 1274.0, 1275.0, 1276.0, 1278.0, 1279.0, 1277.0, 1277.0, 1276.0, 1275.0, 1275.0, 1277.0, 1277.0, 1276.0, 1277.0, 1277.0, 1278.0, 1277.0, 1278.0, 1279.0]
    },
    "slices": {}
  }
}