{
  "AcquisitionMatrixPE": 68,
  "AcquisitionNumber": 1,
  "AcquisitionTime": "11:31:7.070000",
  "BandwidthPerPixelPhaseEncode": 31.289,
  "BaseResolution": 68,
  "CoilString": "C:HEP",
  "ConversionSoftware": "dcm2niix",
  "ConversionSoftwareVersion": "v1.0.20190902",
  "DerivedVendorReportedEchoSpacing": 0.000470002,
  "DeviceSerialNumber": "35450",
  "DwellTime": 3e-06,
  "EchoTime": 0.023,
  "EffectiveEchoSpacing": 0.000470002,
  "FlipAngle": 76,
  "ImageOrientationPatientDICOM": [0.999328, 0.0035122, 0.036475, -5.88464e-08, 0.995396, -0.0958458],
  "ImageType": [
    "ORIGINAL",
    "PRIMARY",
    "M",
    "ND",
    "MOSAIC"
],
  "ImagingFrequency": 123.219,
  "InPlanePhaseEncodingDirectionDICOM": "COL",
  "InstitutionAddress": "Univeristy_Ave._197_Newark_North_East_US_07102-1814",
  "InstitutionName": "RUBIC",
  "InstitutionalDepartmentName": "Department",
  "MRAcquisitionType": "2D",
  "MagneticFieldStrength": 3,
  "Manufacturer": "Siemens",
  "ManufacturersModelName": "TrioTim",
  "Modality": "MR",
  "PartialFourier": 1,
  "PatientPosition": "HFS",
  "PercentPhaseFOV": 100,
  "PhaseEncodingDirection": "j-",
  "PhaseEncodingSteps": 68,
  "PhaseResolution": 1,
  "PixelBandwidth": 2451,
  "ProcedureStepDescription": "Krekelberg_David",
  "ProtocolName": "ep2d_bold_CardGameEPI_3",
  "PulseSequenceDetails": "%SiemensSeq%_ep2d_bold",
  "ReceiveCoilName": "HeadMatrix",
  "ReconMatrixPE": 68,
  "RepetitionTime": 2,
  "SAR": 0.243225,
  "ScanOptions": "FS",
  "ScanningSequence": "EP",
  "SequenceName": "_epfid2d1_68",
  "SequenceVariant": "SK",
  "SeriesDescription": "ep2d_bold_CardGameEPI_3",
  "SeriesNumber": 11,
  "ShimSetting": [2171, -427, -7491, 1852, 778, 663, -1692, -78],
  "SliceThickness": 2.5,
  "SliceTiming": [1.9525, 1.8975, 1.84, 1.785, 1.73, 1.6725, 1.6175, 1.5625, 1.505, 1.45, 1.395, 1.34, 1.2825, 1.2275, 1.1725, 1.115, 1.06, 1.005, 0.9475, 0.8925, 0.8375, 0.7825, 0.725, 0.67, 0.615, 0.5575, 0.5025, 0.4475, 0.39, 0.335, 0.28, 0.2225, 0.1675, 0.1125, 0.0575, 0],
  "SoftwareVersions": "syngo_MR_B19",
  "SpacingBetweenSlices": 3,
  "StationName": "MRC35450",
  "TaskName": "cardgame",
  "TotalReadoutTime": 0.0314901,
  "TxRefAmp": 461.109,
  "dcmmeta_affine": [
    [-2.9979851245880127, -1.7653934492045664e-07, 0.10993113368749619, 100.00770568847656],
    [-0.010536608286201954, 2.9861886501312256, -0.28734415769577026, -70.78457641601562],
    [0.10942501574754715, 0.28753727674484253, 2.9841830730438232, -64.7544174194336],
    [0.0, 0.0, 0.0, 1.0]
],
  "dcmmeta_reorient_transform": [
    [0.0, -1.0, 0.0, 67.0],
    [1.0, 0.0, 0.0, 0.0],
    [0.0, 0.0, 1.0, 0.0],
    [0.0, 0.0, 0.0, 1.0]
],
  "dcmmeta_shape": [68, 68, 36, 258],
  "dcmmeta_slice_dim": 2,
  "dcmmeta_version": 0.6,
  "global": {
    "const": {
      "AcquisitionMatrix": [68, 0, 0, 68],
      "AngioFlag": "N",
      "BitsAllocated": 16,
      "BitsStored": 12,
      "Columns": 408,
      "EchoNumbers": 1,
      "EchoTime": 23.0,
      "EchoTrainLength": 1,
      "FlipAngle": 76.0,
      "HighBit": 11,
      "ImageOrientationPatient": [0.9993283936518, 0.0035122028204, 0.03647500613653, -5.8846447e-08, 0.99539619806099, -0.0958457557001],
      "ImagePositionPatient": [-609.66514615448, -638.73334667388, -15.21033976199],
      "ImageType": [
        "ORIGINAL",
        "PRIMARY",
        "M",
        "ND",
        "MOSAIC"
],
      "ImagedNucleus": "1H",
      "ImagingFrequency": 123.218554,
      "InPlanePhaseEncodingDirection": "COL",
      "MRAcquisitionType": "2D",
      "MagneticFieldStrength": 3.0,
      "Manufacturer": "SIEMENS",
      "ManufacturerModelName": "TrioTim",
      "Modality": "MR",
      "NumberOfAverages": 1.0,
      "NumberOfPhaseEncodingSteps": 68,
      "PercentPhaseFieldOfView": 100.0,
      "PercentSampling": 100.0,
      "PerformedProcedureStepStartTime": "102358.359000",
      "PhotometricInterpretation": "MONOCHROME2",
      "PixelBandwidth": 2451.0,
      "PixelRepresentation": 0,
      "PixelSpacing": [3.0, 3.0],
      "ProtocolName": "ep2d_bold_CardGameEPI_3",
      "RepetitionTime": 2000.0,
      "Rows": 408,
      "SAR": 0.24322486081382,
      "SamplesPerPixel": 1,
      "ScanOptions": "FS",
      "ScanningSequence": "EP",
      "SequenceName": "*epfid2d1_68",
      "SequenceVariant": "SK",
      "SeriesDescription": "ep2d_bold_CardGameEPI_3",
      "SeriesNumber": 11,
      "SeriesTime": "113158.140000",
      "SliceLocation": -53.968515180394,
      "SliceThickness": 2.5,
      "SmallestImagePixelValue": 0,
      "SoftwareVersions": "syngo MR B19",
      "SpacingBetweenSlices": 3.0000000136537,
      "SpecificCharacterSet": "ISO_IR 100",
      "StudyID": "1",
      "StudyTime": "102358.281000",
      "TransmitCoilName": "Body",
      "VariableFlipAngleFlag": "N",
      "WindowCenterWidthExplanation": "Algo1",
      "dBdt": 0.0},
    "slices": {}
  },
  "time": {
    "samples": {
      "AcquisitionNumber": [1, 2, 3, 4, 5, 6, 7, 8, 9, 10, 11, 12, 13, 14, 15, 16, 17, 18, 19, 20, 21, 22, 23, 24, 25, 26, 27, 28, 29, 30, 31, 32, 33, 34, 35, 36, 37, 38, 39, 40, 41, 42, 43, 44, 45, 46, 47, 48, 49, 50, 51, 52, 53, 54, 55, 56, 57, 58, 59, 60, 61, 62, 63, 64, 65, 66, 67, 68, 69, 70, 71, 72, 73, 74, 75, 76, 77, 78, 79, 80, 81, 82, 83, 84, 85, 86, 87, 88, 89, 90, 91, 92, 93, 94, 95, 96, 97, 98, 99, 100, 101, 102, 103, 104, 105, 106, 107, 108, 109, 110, 111, 112, 113, 114, 115, 116, 117, 118, 119, 120, 121, 122, 123, 124, 125, 126, 127, 128, 129, 130, 131, 132, 133, 134, 135, 136, 137, 138, 139, 140, 141, 142, 143, 144, 145, 146, 147, 148, 149, 150, 151, 152, 153, 154, 155, 156, 157, 158, 159, 160, 161, 162, 163, 164, 165, 166, 167, 168, 169, 170, 171, 172, 173, 174, 175, 176, 177, 178, 179, 180, 181, 182, 183, 184, 185, 186, 187, 188, 189, 190, 191, 192, 193, 194, 195, 196, 197, 198, 199, 200, 201, 202, 203, 204, 205, 206, 207, 208, 209, 210, 211, 212, 213, 214, 215, 216, 217, 218, 219, 220, 221, 222, 223, 224, 225, 226, 227, 228, 229, 230, 231, 232, 233, 234, 235, 236, 237, 238, 239, 240, 241, 242, 243, 244, 245, 246, 247, 248, 249, 250, 251, 252, 253, 254, 255, 256, 257, 258],
      "AcquisitionTime": ["113107.070000", "113109.077500", "113111.085000", "113113.095000", "113115.102500", "113117.110000", "113119.117500", "113121.125000", "113123.135000", "113125.142500", "113127.150000", "113129.157500", "113131.165000", "113133.175000", "113135.182500", "113137.190000", "113139.197500", "113141.207500", "113143.215000", "113145.222500", "113147.230000", "113149.237500", "113151.247500", "113153.255000", "113155.262500", "113157.270000", "113159.277500", "113201.287500", "113203.295000", "113205.302500", "113207.310000", "113209.320000", "113211.327500", "113213.335000", "113215.342500", "113217.350000", "113219.360000", "113221.367500", "113223.375000", "113225.382500", "113227.390000", "113229.400000", "113231.407500", "113233.415000", "113235.422500", "113237.430000", "113239.440000", "113241.447500", "113243.455000", "113245.462500", "113247.472500", "113249.480000", "113251.487500", "113253.495000", "113255.502500", "113257.512500", "113259.520000", "113301.527500", "113303.535000", "113305.542500", "113307.552500", "113309.560000", "113311.567500", "113313.575000", "113315.585000", "113317.592500", "113319.600000", "113321.607500", "113323.615000", "113325.625000", "113327.632500", "113329.640000", "113331.647500", "113333.655000", "113335.665000", "113337.672500", "113339.680000", "113341.687500", "113343.697500", "113345.705000", "113347.712500", "113349.720000", "113351.727500", "113353.737500", "113355.745000", "113357.752500", "113359.760000", "113401.767500", "113403.777500", "113405.785000", "113407.792500", "113409.800000", "113411.810000", "113413.817500", "113415.825000", "113417.832500", "113419.840000", "113421.850000", "113423.857500", "113425.865000", "113427.872500", "113429.880000", "113431.890000", "113433.897500", "113435.905000", "113437.912500", "113439.920000", "113441.930000", "113443.937500", "113445.945000", "113447.952500", "113449.962500", "113451.970000", "113453.977500", "113455.985000", "113457.992500", "113500.002500", "113502.010000", "113504.017500", "113506.025000", "113508.032500", "113510.042500", "113512.050000", "113514.057500", "113516.065000", "113518.075000", "113520.082500", "113522.090000", "113524.097500", "113526.105000", "113528.115000", "113530.122500", "113532.130000", "113534.137500", "113536.145000", "113538.155000", "113540.162500", "113542.170000", "113544.177500", "113546.187500", "113548.195000", "113550.202500", "113552.210000", "113554.217500", "113556.227500", "113558.235000", "113600.242500", "113602.250000", "113604.257500", "113606.267500", "113608.275000", "113610.282500", "113612.290000", "113614.297500", "113616.307500", "113618.315000", "113620.322500", "113622.330000", "113624.340000", "113626.347500", "113628.355000", "113630.362500", "113632.370000", "113634.380000", "113636.387500", "113638.395000", "113640.402500", "113642.410000", "113644.420000", "113646.427500", "113648.435000", "113650.442500", "113652.452500", "113654.460000", "113656.467500", "113658.475000", "113700.482500", "113702.492500", "113704.500000", "113706.507500", "113708.515000", "113710.522500", "113712.532500", "113714.540000", "113716.547500", "113718.555000", "113720.565000", "113722.572500", "113724.580000", "113726.587500", "113728.595000", "113730.605000", "113732.612500", "113734.620000", "113736.627500", "113738.635000", "113740.645000", "113742.652500", "113744.660000", "113746.667500", "113748.675000", "113750.685000", "113752.692500", "113754.700000", "113756.707500", "113758.717500", "113800.725000", "113802.732500", "113804.740000", "113806.747500", "113808.757500", "113810.765000", "113812.772500", "113814.780000", "113816.787500", "113818.797500", "113820.805000", "113822.812500", "113824.820000", "113826.830000", "113828.837500", "113830.845000", "113832.852500", "113834.860000", "113836.870000", "113838.877500", "113840.885000", "113842.892500", "113844.900000", "113846.910000", "113848.917500", "113850.925000", "113852.932500", "113854.942500", "113856.950000", "113858.957500", "113900.965000", "113902.972500", "113904.982500", "113906.990000", "113908.997500", "113911.005000", "113913.012500", "113915.022500", "113917.030000", "113919.037500", "113921.045000", "113923.052500", "113925.062500", "113927.070000", "113929.077500", "113931.085000", "113933.095000", "113935.102500", "113937.110000", "113939.117500", "113941.125000", "113943.135000"],
      "ContentTime": ["113158.156000", "113158.156000", "113158.156000", "113158.156000", "113158.156000", "113158.156000", "113158.156000", "113158.171000", "113158.171000", "113158.171000", "113158.171000", "113158.171000", "113158.171000", "113158.171000", "113158.171000", "113158.187000", "113158.187000", "113158.187000", "113158.187000", "113158.187000", "113158.187000", "113158.187000", "113158.203000", "113158.203000", "113158.203000", "113238.140000", "113238.140000", "113238.156000", "113238.156000", "113238.156000", "113238.156000", "113238.156000", "113238.156000", "113238.156000", "113238.156000", "113238.171000", "113238.171000", "113238.171000", "113238.171000", "113238.171000", "113238.171000", "113238.171000", "113238.187000", "113238.187000", "113238.187000", "113318.140000", "113318.140000", "113318.156000", "113318.156000", "113318.156000", "113318.156000", "113318.156000", "113318.156000", "113318.156000", "113318.171000", "113318.171000", "113318.171000", "113318.171000", "113318.171000", "113318.171000", "113318.171000", "113318.171000", "113318.187000", "113318.187000", "113318.187000", "113358.140000", "113358.140000", "113358.156000", "113358.156000", "113358.156000", "113358.156000", "113358.156000", "113358.156000", "113358.156000", "113358.156000", "113358.171000", "113358.171000", "113358.171000", "113358.171000", "113358.171000", "113358.171000", "113358.171000", "113358.187000", "113358.187000", "113358.187000", "113438.140000", "113438.140000", "113438.156000", "113438.156000", "113438.156000", "113438.156000", "113438.156000", "113438.156000", "113438.171000", "113438.171000", "113438.171000", "113438.171000", "113438.171000", "113438.171000", "113438.171000", "113438.187000", "113438.187000", "113438.187000", "113438.187000", "113438.187000", "113518.140000", "113518.140000", "113518.156000", "113518.156000", "113518.156000", "113518.156000", "113518.156000", "113518.156000", "113518.156000", "113518.171000", "113518.171000", "113518.171000", "113518.171000", "113518.171000", "113518.171000", "113518.171000", "113518.171000", "113518.187000", "113518.187000", "113518.187000", "113558.140000", "113558.140000", "113558.156000", "113558.156000", "113558.156000", "113558.156000", "113558.156000", "113558.156000", "113558.171000", "113558.171000", "113558.171000", "113558.171000", "113558.171000", "113558.171000", "113558.171000", "113558.187000", "113558.187000", "113558.187000", "113558.187000", "113558.187000", "113638.140000", "113638.140000", "113638.156000", "113638.156000", "113638.156000", "113638.156000", "113638.156000", "113638.156000", "113638.156000", "113638.171000", "113638.171000", "113638.171000", "113638.171000", "113638.171000", "113638.171000", "113638.171000", "113638.187000", "113638.187000", "113638.187000", "113638.187000", "113718.140000", "113718.140000", "113718.156000", "113718.156000", "113718.156000", "113718.156000", "113718.156000", "113718.156000", "113718.156000", "113718.156000", "113718.171000", "113718.171000", "113718.171000", "113718.171000", "113718.171000", "113718.171000", "113718.171000", "113718.187000", "113718.187000", "113718.187000", "113758.140000", "113758.140000", "113758.156000", "113758.156000", "113758.156000", "113758.156000", "113758.156000", "113758.156000", "113758.171000", "113758.171000", "113758.171000", "113758.171000", "113758.171000", "113758.171000", "113758.171000", "113758.187000", "113758.187000", "113758.187000", "113758.187000", "113758.187000", "113838.140000", "113838.140000", "113838.156000", "113838.156000", "113838.156000", "113838.156000", "113838.156000", "113838.156000", "113838.156000", "113838.171000", "113838.171000", "113838.171000", "113838.171000", "113838.171000", "113838.171000", "113838.171000", "113838.187000", "113838.187000", "113838.187000", "113838.187000", "113918.140000", "113918.140000", "113918.156000", "113918.156000", "113918.156000", "113918.156000", "113918.156000", "113918.156000", "113918.156000", "113918.156000", "113918.171000", "113918.171000", "113918.171000", "113918.171000", "113918.171000", "113918.171000", "113918.171000", "113918.187000", "113918.187000", "113918.187000", "113942.125000", "113942.125000", "113942.125000", "113942.140000", "113942.140000", "113942.140000", "113942.140000", "113942.140000", "113942.140000", "113942.140000", "113942.156000", "113942.156000", "113942.156000"],
      "InstanceCreationTime": ["113158.156000", "113158.156000", "113158.156000", "113158.156000", "113158.156000", "113158.156000", "113158.156000", "113158.171000", "113158.171000", "113158.171000", "113158.171000", "113158.171000", "113158.171000", "113158.171000", "113158.171000", "113158.187000", "113158.187000", "113158.187000", "113158.187000", "113158.187000", "113158.187000", "113158.187000", "113158.203000", "113158.203000", "113158.203000", "113238.140000", "113238.140000", "113238.156000", "113238.156000", "113238.156000", "113238.156000", "113238.156000", "113238.156000", "113238.156000", "113238.156000", "113238.171000", "113238.171000", "113238.171000", "113238.171000", "113238.171000", "113238.171000", "113238.171000", "113238.187000", "113238.187000", "113238.187000", "113318.140000", "113318.140000", "113318.156000", "113318.156000", "113318.156000", "113318.156000", "113318.156000", "113318.156000", "113318.156000", "113318.171000", "113318.171000", "113318.171000", "113318.171000", "113318.171000", "113318.171000", "113318.171000", "113318.171000", "113318.187000", "113318.187000", "113318.187000", "113358.140000", "113358.140000", "113358.156000", "113358.156000", "113358.156000", "113358.156000", "113358.156000", "113358.156000", "113358.156000", "113358.156000", "113358.171000", "113358.171000", "113358.171000", "113358.171000", "113358.171000", "113358.171000", "113358.171000", "113358.187000", "113358.187000", "113358.187000", "113438.140000", "113438.140000", "113438.156000", "113438.156000", "113438.156000", "113438.156000", "113438.156000", "113438.156000", "113438.171000", "113438.171000", "113438.171000", "113438.171000", "113438.171000", "113438.171000", "113438.171000", "113438.187000", "113438.187000", "113438.187000", "113438.187000", "113438.187000", "113518.140000", "113518.140000", "113518.156000", "113518.156000", "113518.156000", "113518.156000", "113518.156000", "113518.156000", "113518.156000", "113518.171000", "113518.171000", "113518.171000", "113518.171000", "113518.171000", "113518.171000", "113518.171000", "113518.171000", "113518.187000", "113518.187000", "113518.187000", "113558.140000", "113558.140000", "113558.156000", "113558.156000", "113558.156000", "113558.156000", "113558.156000", "113558.156000", "113558.171000", "113558.171000", "113558.171000", "113558.171000", "113558.171000", "113558.171000", "113558.171000", "113558.187000", "113558.187000", "113558.187000", "113558.187000", "113558.187000", "113638.140000", "113638.140000", "113638.156000", "113638.156000", "113638.156000", "113638.156000", "113638.156000", "113638.156000", "113638.156000", "113638.171000", "113638.171000", "113638.171000", "113638.171000", "113638.171000", "113638.171000", "113638.171000", "113638.187000", "113638.187000", "113638.187000", "113638.187000", "113718.140000", "113718.140000", "113718.156000", "113718.156000", "113718.156000", "113718.156000", "113718.156000", "113718.156000", "113718.156000", "113718.156000", "113718.171000", "113718.171000", "113718.171000", "113718.171000", "113718.171000", "113718.171000", "113718.171000", "113718.187000", "113718.187000", "113718.187000", "113758.140000", "113758.140000", "113758.156000", "113758.156000", "113758.156000", "113758.156000", "113758.156000", "113758.156000", "113758.171000", "113758.171000", "113758.171000", "113758.171000", "113758.171000", "113758.171000", "113758.171000", "113758.187000", "113758.187000", "113758.187000", "113758.187000", "113758.187000", "113838.140000", "113838.140000", "113838.156000", "113838.156000", "113838.156000", "113838.156000", "113838.156000", "113838.156000", "113838.156000", "113838.171000", "113838.171000", "113838.171000", "113838.171000", "113838.171000", "113838.171000", "113838.171000", "113838.187000", "113838.187000", "113838.187000", "113838.187000", "113918.140000", "113918.140000", "113918.156000", "113918.156000", "113918.156000", "113918.156000", "113918.156000", "113918.156000", "113918.156000", "113918.156000", "113918.171000", "113918.171000", "113918.171000", "113918.171000", "113918.171000", "113918.171000", "113918.171000", "113918.187000", "113918.187000", "113918.187000", "113942.125000", "113942.125000", "113942.125000", "113942.140000", "113942.140000", "113942.140000", "113942.140000", "113942.140000", "113942.140000", "113942.140000", "113942.156000", "113942.156000", "113942.156000"],
      "InstanceNumber": [1, 2, 3, 4, 5, 6, 7, 8, 9, 10, 11, 12, 13, 14, 15, 16, 17, 18, 19, 20, 21, 22, 23, 24, 25, 26, 27, 28, 29, 30, 31, 32, 33, 34, 35, 36, 37, 38, 39, 40, 41, 42, 43, 44, 45, 46, 47, 48, 49, 50, 51, 52, 53, 54, 55, 56, 57, 58, 59, 60, 61, 62, 63, 64, 65, 66, 67, 68, 69, 70, 71, 72, 73, 74, 75, 76, 77, 78, 79, 80, 81, 82, 83, 84, 85, 86, 87, 88, 89, 90, 91, 92, 93, 94, 95, 96, 97, 98, 99, 100, 101, 102, 103, 104, 105, 106, 107, 108, 109, 110, 111, 112, 113, 114, 115, 116, 117, 118, 119, 120, 121, 122, 123, 124, 125, 126, 127, 128, 129, 130, 131, 132, 133, 134, 135, 136, 137, 138, 139, 140, 141, 142, 143, 144, 145, 146, 147, 148, 149, 150, 151, 152, 153, 154, 155, 156, 157, 158, 159, 160, 161, 162, 163, 164, 165, 166, 167, 168, 169, 170, 171, 172, 173, 174, 175, 176, 177, 178, 179, 180, 181, 182, 183, 184, 185, 186, 187, 188, 189, 190, 191, 192, 193, 194, 195, 196, 197, 198, 199, 200, 201, 202, 203, 204, 205, 206, 207, 208, 209, 210, 211, 212, 213, 214, 215, 216, 217, 218, 219, 220, 221, 222, 223, 224, 225, 226, 227, 228, 229, 230, 231, 232, 233, 234, 235, 236, 237, 238, 239, 240, 241, 242, 243, 244, 245, 246, 247, 248, 249, 250, 251, 252, 253, 254, 255, 256, 257, 258],
      "LargestImagePixelValue": [1551, 1451, 1451, 1440, 1425, 1492, 1478, 1448, 1421, 1468, 1416, 1450, 1435, 1422, 1440, 1444, 1424, 1434, 1441, 1419, 1428, 1476, 1450, 1417, 1471, 1450, 1493, 1434, 1445, 1446, 1422, 1418, 1446, 1435, 1436, 1456, 1426, 1419, 1436, 1444, 1412, 1459, 1454, 1436, 1441, 1483, 1451, 1430, 1441, 1453, 1440, 1427, 1443, 1423, 1450, 1446, 1457, 1422, 1443, 1451, 1449, 1449, 1435, 1454, 1474, 1441, 1452, 1457, 1415, 1449, 1459, 1442, 1428, 1474, 1431, 1453, 1451, 1445, 1437, 1415, 1471, 1482, 1471, 1461, 1437, 1466, 1453, 1457, 1441, 1460, 1469, 1429, 1478, 1443, 1413, 1443, 1462, 1437, 1442, 1457, 1454, 1478, 1457, 1468, 1438, 1455, 1441, 1462, 1435, 1469, 1453, 1457, 1441, 1470, 1441, 1441, 1448, 1464, 1426, 1425, 1483, 1471, 1425, 1488, 1473, 1484, 1467, 1452, 1443, 1468, 1465, 1454, 1461, 1456, 1457, 1446, 1455, 1446, 1457, 1480, 1469, 1452, 1452, 1471, 1444, 1447, 1473, 1469, 1453, 1460, 1445, 1444, 1441, 1436, 1438, 1468, 1440, 1449, 1461, 1452, 1438, 1465, 1424, 1445, 1465, 1434, 1470, 1413, 1464, 1471, 1434, 1474, 1464, 1532, 1438, 1447, 1461, 1445, 1453, 1470, 1484, 1405, 1407, 1411, 1400, 1476, 1412, 1429, 1387, 1433, 1431, 1401, 1430, 1440, 1433, 1468, 1445, 1454, 1437, 1454, 1449, 1442, 1444, 1469, 1480, 1565, 1484, 1476, 1444, 1464, 1457, 1454, 1482, 1453, 1528, 1502, 1469, 1455, 1499, 1479, 1478, 1483, 1495, 1476, 1504, 1499, 1472, 1473, 1477, 1480, 1511, 1499, 1476, 1495, 1508, 1516, 1483, 1482, 1502, 1516, 1504, 1509, 1509, 1508, 1502, 1499, 1510, 1516, 1561, 1464, 1510, 1563, 1465, 1490, 1514, 1478, 1494, 1509],
      "WindowCenter": [609.0, 606.0, 605.0, 605.0, 604.0, 605.0, 606.0, 606.0, 605.0, 605.0, 603.0, 604.0, 604.0, 604.0, 604.0, 603.0, 603.0, 604.0, 604.0, 604.0, 604.0, 605.0, 604.0, 603.0, 605.0, 605.0, 607.0, 606.0, 606.0, 606.0, 605.0, 605.0, 605.0, 604.0, 605.0, 603.0, 605.0, 605.0, 604.0, 604.0, 604.0, 604.0, 604.0, 604.0, 605.0, 605.0, 606.0, 605.0, 605.0, 605.0, 605.0, 605.0, 605.0, 604.0, 605.0, 605.0, 608.0, 607.0, 607.0, 606.0, 606.0, 606.0, 606.0, 605.0, 606.0, 605.0, 606.0, 606.0, 605.0, 604.0, 605.0, 604.0, 604.0, 606.0, 606.0, 607.0, 606.0, 605.0, 605.0, 605.0, 607.0, 606.0, 607.0, 607.0, 607.0, 607.0, 607.0, 607.0, 606.0, 606.0, 606.0, 605.0, 607.0, 606.0, 607.0, 608.0, 607.0, 607.0, 606.0, 606.0, 605.0, 606.0, 605.0, 606.0, 606.0, 607.0, 607.0, 607.0, 607.0, 608.0, 607.0, 606.0, 606.0, 607.0, 607.0, 608.0, 608.0, 608.0, 608.0, 607.0, 607.0, 607.0, 607.0, 608.0, 608.0, 608.0, 607.0, 606.0, 606.0, 606.0, 607.0, 608.0, 609.0, 609.0, 608.0, 608.0, 608.0, 607.0, 607.0, 607.0, 608.0, 608.0, 608.0, 608.0, 607.0, 609.0, 609.0, 609.0, 608.0, 609.0, 608.0, 607.0, 607.0, 606.0, 606.0, 607.0, 607.0, 607.0, 608.0, 607.0, 608.0, 607.0, 606.0, 606.0, 607.0, 607.0, 607.0, 607.0, 608.0, 609.0, 608.0, 608.0, 608.0, 611.0, 606.0, 610.0, 608.0, 608.0, 607.0, 606.0, 604.0, 603.0, 604.0, 605.0, 609.0, 605.0, 607.0, 607.0, 606.0, 607.0, 608.0, 606.0, 607.0, 606.0, 606.0, 607.0, 606.0, 607.0, 607.0, 608.0, 607.0, 608.0, 608.0, 609.0, 616.0, 613.0, 610.0, 609.0, 608.0, 607.0, 606.0, 606.0, 607.0, 609.0, 610.0, 611.0, 609.0, 608.0, 608.0, 607.0, 606.0, 606.0, 607.0, 607.0, 608.0, 609.0, 609.0, 610.0, 609.0, 610.0, 610.0, 610.0, 609.0, 609.0, 609.0, 609.0, 609.0, 610.0, 610.0, 609.0, 609.0, 609.0, 608.0, 607.0, 609.0, 609.0, 610.0, 612.0, 612.0, 607.0, 607.0, 611.0, 601.0, 603.0, 604.0, 603.0, 603.0, 604.0],
      "WindowWidth": [1271.0, 1264.0, 1261.0, 1262.0, 1261.0, 1262.0, 1264.0, 1264.0, 1262.0, 1261.0, 1257.0, 1260.0, 1260.0, 1260.0, 1259.0, 1258.0, 1258.0, 1259.0, 1260.0, 1260.0, 1260.0, 1261.0, 1260.0, 1258.0, 1261.0, 1262.0, 1267.0, 1264.0, 1263.0, 1263.0, 1262.0, 1261.0, 1261.0, 1260.0, 1262.0, 1258.0, 1262.0, 1261.0, 1260.0, 1261.0, 1259.0, 1260.0, 1259.0, 1260.0, 1261.0, 1263.0, 1263.0, 1262.0, 1262.0, 1262.0, 1261.0, 1261.0, 1261.0, 1261.0, 1261.0, 1262.0, 1267.0, 1267.0, 1266.0, 1263.0, 1263.0, 1265.0, 1265.0, 1262.0, 1264.0, 1261.0, 1263.0, 1263.0, 1261.0, 1260.0, 1261.0, 1260.0, 1260.0, 1263.0, 1264.0, 1265.0, 1263.0, 1262.0, 1262.0, 1262.0, 1265.0, 1264.0, 1265.0, 1267.0, 1266.0, 1266.0, 1266.0, 1265.0, 1264.0, 1263.0, 1264.0, 1262.0, 1265.0, 1265.0, 1266.0, 1267.0, 1267.0, 1266.0, 1264.0, 1263.0, 1262.0, 1262.0, 1262.0, 1263.0, 1263.0, 1265.0, 1266.0, 1267.0, 1267.0, 1267.0, 1265.0, 1264.0, 1264.0, 1266.0, 1267.0, 1267.0, 1269.0, 1268.0, 1267.0, 1267.0, 1267.0, 1266.0, 1265.0, 1268.0, 1269.0, 1268.0, 1265.0, 1264.0, 1264.0, 1265.0, 1265.0, 1267.0, 1269.0, 1269.0, 1267.0, 1267.0, 1267.0, 1266.0, 1265.0, 1267.0, 1267.0, 1267.0, 1268.0, 1268.0, 1267.0, 1270.0, 1271.0, 1271.0, 1268.0, 1272.0, 1269.0, 1267.0, 1265.0, 1265.0, 1265.0, 1266.0, 1266.0, 1266.0, 1268.0, 1266.0, 1267.0, 1266.0, 1264.0, 1265.0, 1267.0, 1266.0, 1267.0, 1267.0, 1269.0, 1270.0, 1269.0, 1269.0, 1269.0, 1276.0, 1263.0, 1273.0, 1269.0, 1267.0, 1265.0, 1263.0, 1260.0, 1258.0, 1260.0, 1262.0, 1269.0, 1262.0, 1267.0, 1266.0, 1264.0, 1265.0, 1267.0, 1265.0, 1266.0, 1264.0, 1263.0, 1264.0, 1264.0, 1266.0, 1266.0, 1267.0, 1266.0, 1267.0, 1269.0, 1270.0, 1285.0, 1280.0, 1272.0, 1270.0, 1268.0, 1265.0, 1263.0, 1264.0, 1266.0, 1270.0, 1272.0, 1274.0, 1269.0, 1269.0, 1268.0, 1265.0, 1263.0, 1262.0, 1267.0, 1266.0, 1267.0, 1270.0, 1270.0, 1271.0, 1271.0, 1272.0, 1271.0, 1272.0, 1270.0, 1271.0, 1270.0, 1270.0, 1271.0, 1273.0, 1273.0, 1271.0, 1270.0, 1269.0, 1267.0, 1265.0, 1269.0, 1271.0, 1271.0, 1275.0, 1278.0, 1267.0, 1266.0, 1276.0, 1254.0, 1257.0, 1259.0, 1258.0, 1257.0, 1260.0]
    },
    "slices": {}
  }
}