{
  "aor": 0.002097704280155642,
  "aqi": 0.01066439887159533,
  "bids_meta": {
    "AcquisitionMatrixPE": 68,
    "AcquisitionNumber": 1,
    "AcquisitionTime": "10:42:38.505000",
    "BandwidthPerPixelPhaseEncode": 31.289,
    "BaseResolution": 68,
    "CogAtlasID": "TODO",
    "CoilString": "C:HEA;HEP",
    "ConversionSoftware": "dcm2niix",
    "ConversionSoftwareVersion": "v1.0.20190902",
    "DerivedVendorReportedEchoSpacing": 0.000470002,
    "DeviceSerialNumber": "35450",
    "DwellTime": 3e-06,
    "EchoTime": 0.023,
    "EffectiveEchoSpacing": 0.000470002,
    "FlipAngle": 76,
    "ImageOrientationPatientDICOM": [
      0.99961,
      0.00717954,
      0.0269828,
      3.16756e-08,
      0.966376,
      -0.257133
    ],
    "ImageType": [
      "ORIGINAL",
      "PRIMARY",
      "M",
      "ND",
      "MOSAIC"
    ],
    "ImagingFrequency": 123.218,
    "InPlanePhaseEncodingDirectionDICOM": "COL",
    "InstitutionAddress": "Univeristy_Ave._197_Newark_North_East_US_07102-1814",
    "InstitutionName": "RUBIC",
    "InstitutionalDepartmentName": "Department",
    "MRAcquisitionType": "2D",
    "MagneticFieldStrength": 3,
    "Manufacturer": "Siemens",
    "ManufacturersModelName": "TrioTim",
    "Modality": "MR",
    "PartialFourier": 1,
    "PatientPosition": "HFS",
    "PercentPhaseFOV": 100,
    "PhaseEncodingDirection": "j-",
    "PhaseEncodingSteps": 68,
    "PhaseResolution": 1,
    "PixelBandwidth": 2451,
    "ProcedureStepDescription": "Krekelberg_David",
    "ProtocolName": "ep2d_bold_CardGameEPI_1",
    "PulseSequenceDetails": "%SiemensSeq%_ep2d_bold",
    "ReceiveCoilName": "HeadMatrix",
    "ReconMatrixPE": 68,
    "RepetitionTime": 2,
    "SAR": 0.162984,
    "ScanOptions": "FS",
    "ScanningSequence": "EP",
    "SequenceName": "_epfid2d1_68",
    "SequenceVariant": "SK",
    "SeriesDescription": "ep2d_bold_CardGameEPI_1",
    "SeriesNumber": 5,
    "ShimSetting": [
      1964,
      -608,
      -7552,
      1098,
      134,
      -16,
      -197,
      -115
    ],
    "SliceThickness": 2.5,
    "SliceTiming": [
      1.9525,
      1.8975,
      1.84,
      1.785,
      1.73,
      1.6725,
      1.6175,
      1.5625,
      1.505,
      1.45,
      1.395,
      1.3375,
      1.2825,
      1.2275,
      1.1725,
      1.115,
      1.06,
      1.005,
      0.9475,
      0.8925,
      0.8375,
      0.78,
      0.725,
      0.67,
      0.6125,
      0.5575,
      0.5025,
      0.4475,
      0.39,
      0.335,
      0.28,
      0.2225,
      0.1675,
      0.1125,
      0.055,
      0
    ],
    "SoftwareVersions": "syngo_MR_B19",
    "SpacingBetweenSlices": 3,
    "StationName": "MRC35450",
    "TaskName": "cardgame",
    "TotalReadoutTime": 0.0314901,
    "TxRefAmp": 315.632,
    "dataset": "<unset>",
    "dcmmeta_affine": [
      [
        -2.9988303184509277,
        9.502666387106729e-08,
        0.08376491069793701,
        102.52824401855469
      ],
      [
        -0.021538613364100456,
        2.8991281986236572,
        -0.7710976004600525,
        -63.80298614501953
      ],
      [
        0.08094842731952667,
        0.7713983654975891,
        2.8979978561401367,
        -70.1078872680664
      ],
      [
        0.0,
        0.0,
        0.0,
        1.0
      ]
    ],
    "dcmmeta_reorient_transform": [
      [
        0.0,
        -1.0,
        0.0,
        67.0
      ],
      [
        1.0,
        0.0,
        0.0,
        0.0
      ],
      [
        0.0,
        0.0,
        1.0,
        0.0
      ],
      [
        0.0,
        0.0,
        0.0,
        1.0
      ]
    ],
    "dcmmeta_shape": [
      68,
      68,
      36,
      258
    ],
    "dcmmeta_slice_dim": 2,
    "dcmmeta_version": 0.6,
    "global": {
      "const": {
        "AcquisitionMatrix": [
          68,
          0,
          0,
          68
        ],
        "AngioFlag": "N",
        "BitsAllocated": 16,
        "BitsStored": 12,
        "Columns": 408,
        "EchoNumbers": 1,
        "EchoTime": 23.0,
        "EchoTrainLength": 1,
        "FlipAngle": 76.0,
        "HighBit": 11,
        "ImageOrientationPatient": [
          0.99961011512437,
          0.00717953750845,
          0.02698280901258,
          3.1675555e-08,
          0.96637608002675,
          -0.2571327905035
        ],
        "ImagePositionPatient": [
          -612.32942219831,
          -626.95197276125,
          98.952294501316
        ],
        "ImageType": [
          "ORIGINAL",
          "PRIMARY",
          "M",
          "ND",
          "MOSAIC"
        ],
        "ImagedNucleus": "1H",
        "ImagingFrequency": 123.218439,
        "InPlanePhaseEncodingDirection": "COL",
        "MRAcquisitionType": "2D",
        "MagneticFieldStrength": 3.0,
        "Manufacturer": "SIEMENS",
        "ManufacturerModelName": "TrioTim",
        "Modality": "MR",
        "NumberOfAverages": 1.0,
        "NumberOfPhaseEncodingSteps": 68,
        "PercentPhaseFieldOfView": 100.0,
        "PercentSampling": 100.0,
        "PerformedProcedureStepStartTime": "102339.875000",
        "PhotometricInterpretation": "MONOCHROME2",
        "PixelBandwidth": 2451.0,
        "PixelRepresentation": 0,
        "PixelSpacing": [
          3.0,
          3.0
        ],
        "ProtocolName": "ep2d_bold_CardGameEPI_1",
        "RepetitionTime": 2000.0,
        "Rows": 408,
        "SAR": 0.16298443381878,
        "SamplesPerPixel": 1,
        "ScanOptions": "FS",
        "ScanningSequence": "EP",
        "SequenceName": "*epfid2d1_68",
        "SequenceVariant": "SK",
        "SeriesDescription": "ep2d_bold_CardGameEPI_1",
        "SeriesNumber": 5,
        "SeriesTime": "104325.046000",
        "SliceLocation": -48.461970777936,
        "SliceThickness": 2.5,
        "SmallestImagePixelValue": 0,
        "SoftwareVersions": "syngo MR B19",
        "SpacingBetweenSlices": 3.0000000176145,
        "SpecificCharacterSet": "ISO_IR 100",
        "StudyID": "1",
        "StudyTime": "102339.765000",
        "TransmitCoilName": "Body",
        "VariableFlipAngleFlag": "N",
        "WindowCenterWidthExplanation": "Algo1",
        "dBdt": 0.0
      },
      "slices": {}
    },
    "modality": "bold",
    "run_id": 1,
    "subject_id": "230",
    "task_id": "cardgame",
    "time": {
      "samples": {
        "AcquisitionNumber": [
          1,
          2,
          3,
          4,
          5,
          6,
          7,
          8,
          9,
          10,
          11,
          12,
          13,
          14,
          15,
          16,
          17,
          18,
          19,
          20,
          21,
          22,
          23,
          24,
          25,
          26,
          27,
          28,
          29,
          30,
          31,
          32,
          33,
          34,
          35,
          36,
          37,
          38,
          39,
          40,
          41,
          42,
          43,
          44,
          45,
          46,
          47,
          48,
          49,
          50,
          51,
          52,
          53,
          54,
          55,
          56,
          57,
          58,
          59,
          60,
          61,
          62,
          63,
          64,
          65,
          66,
          67,
          68,
          69,
          70,
          71,
          72,
          73,
          74,
          75,
          76,
          77,
          78,
          79,
          80,
          81,
          82,
          83,
          84,
          85,
          86,
          87,
          88,
          89,
          90,
          91,
          92,
          93,
          94,
          95,
          96,
          97,
          98,
          99,
          100,
          101,
          102,
          103,
          104,
          105,
          106,
          107,
          108,
          109,
          110,
          111,
          112,
          113,
          114,
          115,
          116,
          117,
          118,
          119,
          120,
          121,
          122,
          123,
          124,
          125,
          126,
          127,
          128,
          129,
          130,
          131,
          132,
          133,
          134,
          135,
          136,
          137,
          138,
          139,
          140,
          141,
          142,
          143,
          144,
          145,
          146,
          147,
          148,
          149,
          150,
          151,
          152,
          153,
          154,
          155,
          156,
          157,
          158,
          159,
          160,
          161,
          162,
          163,
          164,
          165,
          166,
          167,
          168,
          169,
          170,
          171,
          172,
          173,
          174,
          175,
          176,
          177,
          178,
          179,
          180,
          181,
          182,
          183,
          184,
          185,
          186,
          187,
          188,
          189,
          190,
          191,
          192,
          193,
          194,
          195,
          196,
          197,
          198,
          199,
          200,
          201,
          202,
          203,
          204,
          205,
          206,
          207,
          208,
          209,
          210,
          211,
          212,
          213,
          214,
          215,
          216,
          217,
          218,
          219,
          220,
          221,
          222,
          223,
          224,
          225,
          226,
          227,
          228,
          229,
          230,
          231,
          232,
          233,
          234,
          235,
          236,
          237,
          238,
          239,
          240,
          241,
          242,
          243,
          244,
          245,
          246,
          247,
          248,
          249,
          250,
          251,
          252,
          253,
          254,
          255,
          256,
          257,
          258
        ],
        "AcquisitionTime": [
          "104238.505000",
          "104240.512500",
          "104242.520000",
          "104244.527500",
          "104246.537500",
          "104248.545000",
          "104250.552500",
          "104252.560000",
          "104254.570000",
          "104256.577500",
          "104258.585000",
          "104300.592500",
          "104302.600000",
          "104304.610000",
          "104306.617500",
          "104308.625000",
          "104310.632500",
          "104312.640000",
          "104314.650000",
          "104316.657500",
          "104318.665000",
          "104320.672500",
          "104322.680000",
          "104324.690000",
          "104326.697500",
          "104328.705000",
          "104330.712500",
          "104332.722500",
          "104334.730000",
          "104336.737500",
          "104338.745000",
          "104340.752500",
          "104342.762500",
          "104344.770000",
          "104346.777500",
          "104348.785000",
          "104350.792500",
          "104352.802500",
          "104354.810000",
          "104356.817500",
          "104358.825000",
          "104400.835000",
          "104402.842500",
          "104404.850000",
          "104406.857500",
          "104408.865000",
          "104410.875000",
          "104412.882500",
          "104414.890000",
          "104416.897500",
          "104418.905000",
          "104420.915000",
          "104422.922500",
          "104424.930000",
          "104426.937500",
          "104428.947500",
          "104430.955000",
          "104432.962500",
          "104434.970000",
          "104436.977500",
          "104438.987500",
          "104440.995000",
          "104443.002500",
          "104445.010000",
          "104447.017500",
          "104449.027500",
          "104451.035000",
          "104453.042500",
          "104455.050000",
          "104457.060000",
          "104459.067500",
          "104501.075000",
          "104503.082500",
          "104505.090000",
          "104507.100000",
          "104509.107500",
          "104511.115000",
          "104513.122500",
          "104515.130000",
          "104517.140000",
          "104519.147500",
          "104521.155000",
          "104523.162500",
          "104525.170000",
          "104527.180000",
          "104529.187500",
          "104531.195000",
          "104533.202500",
          "104535.212500",
          "104537.220000",
          "104539.227500",
          "104541.235000",
          "104543.242500",
          "104545.252500",
          "104547.260000",
          "104549.267500",
          "104551.275000",
          "104553.282500",
          "104555.292500",
          "104557.300000",
          "104559.307500",
          "104601.315000",
          "104603.325000",
          "104605.332500",
          "104607.340000",
          "104609.347500",
          "104611.355000",
          "104613.365000",
          "104615.372500",
          "104617.380000",
          "104619.387500",
          "104621.395000",
          "104623.405000",
          "104625.412500",
          "104627.420000",
          "104629.427500",
          "104631.437500",
          "104633.445000",
          "104635.452500",
          "104637.460000",
          "104639.467500",
          "104641.477500",
          "104643.485000",
          "104645.492500",
          "104647.500000",
          "104649.507500",
          "104651.517500",
          "104653.525000",
          "104655.532500",
          "104657.540000",
          "104659.547500",
          "104701.557500",
          "104703.565000",
          "104705.572500",
          "104707.580000",
          "104709.590000",
          "104711.597500",
          "104713.605000",
          "104715.612500",
          "104717.620000",
          "104719.630000",
          "104721.637500",
          "104723.645000",
          "104725.652500",
          "104727.660000",
          "104729.670000",
          "104731.677500",
          "104733.685000",
          "104735.692500",
          "104737.702500",
          "104739.710000",
          "104741.717500",
          "104743.725000",
          "104745.732500",
          "104747.742500",
          "104749.750000",
          "104751.757500",
          "104753.765000",
          "104755.772500",
          "104757.782500",
          "104759.790000",
          "104801.797500",
          "104803.805000",
          "104805.815000",
          "104807.822500",
          "104809.830000",
          "104811.837500",
          "104813.845000",
          "104815.855000",
          "104817.862500",
          "104819.870000",
          "104821.877500",
          "104823.885000",
          "104825.895000",
          "104827.902500",
          "104829.910000",
          "104831.917500",
          "104833.925000",
          "104835.935000",
          "104837.942500",
          "104839.950000",
          "104841.957500",
          "104843.967500",
          "104845.975000",
          "104847.982500",
          "104849.990000",
          "104851.997500",
          "104854.007500",
          "104856.015000",
          "104858.022500",
          "104900.030000",
          "104902.037500",
          "104904.047500",
          "104906.055000",
          "104908.062500",
          "104910.070000",
          "104912.080000",
          "104914.087500",
          "104916.095000",
          "104918.102500",
          "104920.110000",
          "104922.120000",
          "104924.127500",
          "104926.135000",
          "104928.142500",
          "104930.150000",
          "104932.160000",
          "104934.167500",
          "104936.175000",
          "104938.182500",
          "104940.192500",
          "104942.200000",
          "104944.207500",
          "104946.215000",
          "104948.222500",
          "104950.232500",
          "104952.240000",
          "104954.247500",
          "104956.255000",
          "104958.262500",
          "105000.272500",
          "105002.280000",
          "105004.287500",
          "105006.295000",
          "105008.302500",
          "105010.312500",
          "105012.320000",
          "105014.327500",
          "105016.335000",
          "105018.345000",
          "105020.352500",
          "105022.360000",
          "105024.367500",
          "105026.375000",
          "105028.385000",
          "105030.392500",
          "105032.400000",
          "105034.407500",
          "105036.415000",
          "105038.425000",
          "105040.432500",
          "105042.440000",
          "105044.447500",
          "105046.457500",
          "105048.465000",
          "105050.472500",
          "105052.480000",
          "105054.487500",
          "105056.497500",
          "105058.505000",
          "105100.512500",
          "105102.520000",
          "105104.527500",
          "105106.537500",
          "105108.545000",
          "105110.552500",
          "105112.560000",
          "105114.570000"
        ],
        "ContentTime": [
          "104325.062000",
          "104325.062000",
          "104325.062000",
          "104325.062000",
          "104325.062000",
          "104325.078000",
          "104325.078000",
          "104325.078000",
          "104325.078000",
          "104325.078000",
          "104325.078000",
          "104325.078000",
          "104325.093000",
          "104325.093000",
          "104325.093000",
          "104325.093000",
          "104325.093000",
          "104325.093000",
          "104325.093000",
          "104325.093000",
          "104325.109000",
          "104325.109000",
          "104325.109000",
          "104405.046000",
          "104405.046000",
          "104405.046000",
          "104405.046000",
          "104405.046000",
          "104405.062000",
          "104405.062000",
          "104405.062000",
          "104405.062000",
          "104405.062000",
          "104405.062000",
          "104405.062000",
          "104405.062000",
          "104405.078000",
          "104405.078000",
          "104405.078000",
          "104405.078000",
          "104405.078000",
          "104405.078000",
          "104405.078000",
          "104445.046000",
          "104445.046000",
          "104445.046000",
          "104445.046000",
          "104445.046000",
          "104445.046000",
          "104445.062000",
          "104445.062000",
          "104445.062000",
          "104445.062000",
          "104445.078000",
          "104445.078000",
          "104445.078000",
          "104445.078000",
          "104445.078000",
          "104445.078000",
          "104445.078000",
          "104445.078000",
          "104445.093000",
          "104445.093000",
          "104525.046000",
          "104525.046000",
          "104525.046000",
          "104525.046000",
          "104525.046000",
          "104525.062000",
          "104525.062000",
          "104525.062000",
          "104525.062000",
          "104525.062000",
          "104525.062000",
          "104525.062000",
          "104525.062000",
          "104525.078000",
          "104525.078000",
          "104525.078000",
          "104525.078000",
          "104525.078000",
          "104525.078000",
          "104525.078000",
          "104605.046000",
          "104605.046000",
          "104605.046000",
          "104605.046000",
          "104605.046000",
          "104605.062000",
          "104605.062000",
          "104605.062000",
          "104605.062000",
          "104605.062000",
          "104605.062000",
          "104605.062000",
          "104605.062000",
          "104605.078000",
          "104605.078000",
          "104605.078000",
          "104605.078000",
          "104605.078000",
          "104605.078000",
          "104605.078000",
          "104645.046000",
          "104645.046000",
          "104645.046000",
          "104645.046000",
          "104645.046000",
          "104645.046000",
          "104645.062000",
          "104645.062000",
          "104645.062000",
          "104645.062000",
          "104645.062000",
          "104645.062000",
          "104645.062000",
          "104645.078000",
          "104645.078000",
          "104645.078000",
          "104645.078000",
          "104645.078000",
          "104645.078000",
          "104645.078000",
          "104725.046000",
          "104725.046000",
          "104725.046000",
          "104725.046000",
          "104725.046000",
          "104725.062000",
          "104725.062000",
          "104725.062000",
          "104725.062000",
          "104725.062000",
          "104725.062000",
          "104725.062000",
          "104725.078000",
          "104725.078000",
          "104725.078000",
          "104725.078000",
          "104725.078000",
          "104725.078000",
          "104725.078000",
          "104725.078000",
          "104805.046000",
          "104805.046000",
          "104805.046000",
          "104805.046000",
          "104805.046000",
          "104805.062000",
          "104805.062000",
          "104805.062000",
          "104805.062000",
          "104805.062000",
          "104805.062000",
          "104805.062000",
          "104805.062000",
          "104805.078000",
          "104805.078000",
          "104805.078000",
          "104805.078000",
          "104805.078000",
          "104805.078000",
          "104805.078000",
          "104845.046000",
          "104845.046000",
          "104845.046000",
          "104845.046000",
          "104845.046000",
          "104845.062000",
          "104845.062000",
          "104845.062000",
          "104845.062000",
          "104845.062000",
          "104845.062000",
          "104845.062000",
          "104845.062000",
          "104845.078000",
          "104845.078000",
          "104845.078000",
          "104845.078000",
          "104845.078000",
          "104845.078000",
          "104845.093000",
          "104925.046000",
          "104925.046000",
          "104925.046000",
          "104925.046000",
          "104925.046000",
          "104925.062000",
          "104925.062000",
          "104925.062000",
          "104925.062000",
          "104925.062000",
          "104925.062000",
          "104925.062000",
          "104925.062000",
          "104925.078000",
          "104925.078000",
          "104925.078000",
          "104925.078000",
          "104925.078000",
          "104925.078000",
          "104925.078000",
          "105005.046000",
          "105005.046000",
          "105005.046000",
          "105005.046000",
          "105005.046000",
          "105005.062000",
          "105005.062000",
          "105005.062000",
          "105005.062000",
          "105005.062000",
          "105005.062000",
          "105005.062000",
          "105005.062000",
          "105005.078000",
          "105005.078000",
          "105005.078000",
          "105005.078000",
          "105005.078000",
          "105005.093000",
          "105005.093000",
          "105045.046000",
          "105045.046000",
          "105045.046000",
          "105045.046000",
          "105045.046000",
          "105045.062000",
          "105045.062000",
          "105045.062000",
          "105045.062000",
          "105045.062000",
          "105045.062000",
          "105045.062000",
          "105045.078000",
          "105045.078000",
          "105045.078000",
          "105045.078000",
          "105045.078000",
          "105045.078000",
          "105045.078000",
          "105045.078000",
          "105113.484000",
          "105113.484000",
          "105113.484000",
          "105113.500000",
          "105113.500000",
          "105113.500000",
          "105113.500000",
          "105113.500000",
          "105113.500000",
          "105113.500000",
          "105113.500000",
          "105113.515000",
          "105113.515000",
          "105113.515000",
          "105113.515000"
        ],
        "InstanceCreationTime": [
          "104325.062000",
          "104325.062000",
          "104325.062000",
          "104325.062000",
          "104325.062000",
          "104325.078000",
          "104325.078000",
          "104325.078000",
          "104325.078000",
          "104325.078000",
          "104325.078000",
          "104325.078000",
          "104325.093000",
          "104325.093000",
          "104325.093000",
          "104325.093000",
          "104325.093000",
          "104325.093000",
          "104325.093000",
          "104325.093000",
          "104325.109000",
          "104325.109000",
          "104325.109000",
          "104405.046000",
          "104405.046000",
          "104405.046000",
          "104405.046000",
          "104405.046000",
          "104405.062000",
          "104405.062000",
          "104405.062000",
          "104405.062000",
          "104405.062000",
          "104405.062000",
          "104405.062000",
          "104405.062000",
          "104405.078000",
          "104405.078000",
          "104405.078000",
          "104405.078000",
          "104405.078000",
          "104405.078000",
          "104405.078000",
          "104445.046000",
          "104445.046000",
          "104445.046000",
          "104445.046000",
          "104445.046000",
          "104445.046000",
          "104445.062000",
          "104445.062000",
          "104445.062000",
          "104445.062000",
          "104445.078000",
          "104445.078000",
          "104445.078000",
          "104445.078000",
          "104445.078000",
          "104445.078000",
          "104445.078000",
          "104445.078000",
          "104445.093000",
          "104445.093000",
          "104525.046000",
          "104525.046000",
          "104525.046000",
          "104525.046000",
          "104525.046000",
          "104525.062000",
          "104525.062000",
          "104525.062000",
          "104525.062000",
          "104525.062000",
          "104525.062000",
          "104525.062000",
          "104525.062000",
          "104525.078000",
          "104525.078000",
          "104525.078000",
          "104525.078000",
          "104525.078000",
          "104525.078000",
          "104525.078000",
          "104605.046000",
          "104605.046000",
          "104605.046000",
          "104605.046000",
          "104605.046000",
          "104605.062000",
          "104605.062000",
          "104605.062000",
          "104605.062000",
          "104605.062000",
          "104605.062000",
          "104605.062000",
          "104605.062000",
          "104605.078000",
          "104605.078000",
          "104605.078000",
          "104605.078000",
          "104605.078000",
          "104605.078000",
          "104605.078000",
          "104645.046000",
          "104645.046000",
          "104645.046000",
          "104645.046000",
          "104645.046000",
          "104645.046000",
          "104645.062000",
          "104645.062000",
          "104645.062000",
          "104645.062000",
          "104645.062000",
          "104645.062000",
          "104645.062000",
          "104645.078000",
          "104645.078000",
          "104645.078000",
          "104645.078000",
          "104645.078000",
          "104645.078000",
          "104645.078000",
          "104725.046000",
          "104725.046000",
          "104725.046000",
          "104725.046000",
          "104725.046000",
          "104725.062000",
          "104725.062000",
          "104725.062000",
          "104725.062000",
          "104725.062000",
          "104725.062000",
          "104725.062000",
          "104725.078000",
          "104725.078000",
          "104725.078000",
          "104725.078000",
          "104725.078000",
          "104725.078000",
          "104725.078000",
          "104725.078000",
          "104805.046000",
          "104805.046000",
          "104805.046000",
          "104805.046000",
          "104805.046000",
          "104805.062000",
          "104805.062000",
          "104805.062000",
          "104805.062000",
          "104805.062000",
          "104805.062000",
          "104805.062000",
          "104805.062000",
          "104805.078000",
          "104805.078000",
          "104805.078000",
          "104805.078000",
          "104805.078000",
          "104805.078000",
          "104805.078000",
          "104845.046000",
          "104845.046000",
          "104845.046000",
          "104845.046000",
          "104845.046000",
          "104845.062000",
          "104845.062000",
          "104845.062000",
          "104845.062000",
          "104845.062000",
          "104845.062000",
          "104845.062000",
          "104845.062000",
          "104845.078000",
          "104845.078000",
          "104845.078000",
          "104845.078000",
          "104845.078000",
          "104845.078000",
          "104845.093000",
          "104925.046000",
          "104925.046000",
          "104925.046000",
          "104925.046000",
          "104925.046000",
          "104925.062000",
          "104925.062000",
          "104925.062000",
          "104925.062000",
          "104925.062000",
          "104925.062000",
          "104925.062000",
          "104925.062000",
          "104925.078000",
          "104925.078000",
          "104925.078000",
          "104925.078000",
          "104925.078000",
          "104925.078000",
          "104925.078000",
          "105005.046000",
          "105005.046000",
          "105005.046000",
          "105005.046000",
          "105005.046000",
          "105005.062000",
          "105005.062000",
          "105005.062000",
          "105005.062000",
          "105005.062000",
          "105005.062000",
          "105005.062000",
          "105005.062000",
          "105005.078000",
          "105005.078000",
