{
  "aor": 0.001128988326848249,
  "aqi": 0.015475379961089494,
  "bids_meta": {
    "AcquisitionMatrixPE": 68,
    "AcquisitionNumber": 1,
    "AcquisitionTime": "11:41:7.952500",
    "BandwidthPerPixelPhaseEncode": 31.289,
    "BaseResolution": 68,
    "CogAtlasID": "TODO",
    "CoilString": "C:HEA;HEP",
    "ConversionSoftware": "dcm2niix",
    "ConversionSoftwareVersion": "v1.0.20190902",
    "DerivedVendorReportedEchoSpacing": 0.000470002,
    "DeviceSerialNumber": "35450",
    "DwellTime": 3e-06,
    "EchoTime": 0.023,
    "EffectiveEchoSpacing": 0.000470002,
    "FlipAngle": 76,
    "ImageOrientationPatientDICOM": [
      0.99961,
      0.00717954,
      0.0269828,
      3.16756e-08,
      0.966376,
      -0.257133
    ],
    "ImageType": [
      "ORIGINAL",
      "PRIMARY",
      "M",
      "ND",
      "MOSAIC"
    ],
    "ImagingFrequency": 123.219,
    "InPlanePhaseEncodingDirectionDICOM": "COL",
    "InstitutionAddress": "Univeristy_Ave._197_Newark_North_East_US_07102-1814",
    "InstitutionName": "RUBIC",
    "InstitutionalDepartmentName": "Department",
    "MRAcquisitionType": "2D",
    "MagneticFieldStrength": 3,
    "Manufacturer": "Siemens",
    "ManufacturersModelName": "TrioTim",
    "Modality": "MR",
    "PartialFourier": 1,
    "PatientPosition": "HFS",
    "PercentPhaseFOV": 100,
    "PhaseEncodingDirection": "j-",
    "PhaseEncodingSteps": 68,
    "PhaseResolution": 1,
    "PixelBandwidth": 2451,
    "ProcedureStepDescription": "Krekelberg_David",
    "ProtocolName": "ep2d_bold_CardGameEPI_3",
    "PulseSequenceDetails": "%SiemensSeq%_ep2d_bold",
    "ReceiveCoilName": "HeadMatrix",
    "ReconMatrixPE": 68,
    "RepetitionTime": 2,
    "SAR": 0.162984,
    "ScanOptions": "FS",
    "ScanningSequence": "EP",
    "SequenceName": "_epfid2d1_68",
    "SequenceVariant": "SK",
    "SeriesDescription": "ep2d_bold_CardGameEPI_3",
    "SeriesNumber": 11,
    "ShimSetting": [
      1964,
      -608,
      -7552,
      1098,
      134,
      -16,
      -197,
      -115
    ],
    "SliceThickness": 2.5,
    "SliceTiming": [
      1.9525,
      1.895,
      1.84,
      1.785,
      1.7275,
      1.6725,
      1.6175,
      1.5625,
      1.505,
      1.45,
      1.395,
      1.3375,
      1.2825,
      1.2275,
      1.17,
      1.115,
      1.06,
      1.0025,
      0.9475,
      0.8925,
      0.8375,
      0.78,
      0.725,
      0.67,
      0.6125,
      0.5575,
      0.5025,
      0.445,
      0.39,
      0.335,
      0.28,
      0.2225,
      0.1675,
      0.1125,
      0.055,
      0
    ],
    "SoftwareVersions": "syngo_MR_B19",
    "SpacingBetweenSlices": 3,
    "StationName": "MRC35450",
    "TaskName": "cardgame",
    "TotalReadoutTime": 0.0314901,
    "TxRefAmp": 315.632,
    "dataset": "<unset>",
    "dcmmeta_affine": [
      [
        -2.9988303184509277,
        9.502666387106729e-08,
        0.08376491069793701,
        102.52824401855469
      ],
      [
        -0.021538613364100456,
        2.8991281986236572,
        -0.7710976004600525,
        -63.80298614501953
      ],
      [
        0.08094842731952667,
        0.7713983654975891,
        2.8979978561401367,
        -70.1078872680664
      ],
      [
        0.0,
        0.0,
        0.0,
        1.0
      ]
    ],
    "dcmmeta_reorient_transform": [
      [
        0.0,
        -1.0,
        0.0,
        67.0
      ],
      [
        1.0,
        0.0,
        0.0,
        0.0
      ],
      [
        0.0,
        0.0,
        1.0,
        0.0
      ],
      [
        0.0,
        0.0,
        0.0,
        1.0
      ]
    ],
    "dcmmeta_shape": [
      68,
      68,
      36,
      258
    ],
    "dcmmeta_slice_dim": 2,
    "dcmmeta_version": 0.6,
    "global": {
      "const": {
        "AcquisitionMatrix": [
          68,
          0,
          0,
          68
        ],
        "AngioFlag": "N",
        "BitsAllocated": 16,
        "BitsStored": 12,
        "Columns": 408,
        "EchoNumbers": 1,
        "EchoTime": 23.0,
        "EchoTrainLength": 1,
        "FlipAngle": 76.0,
        "HighBit": 11,
        "ImageOrientationPatient": [
          0.99961011512437,
          0.00717953750845,
          0.02698280901258,
          3.1675555e-08,
          0.96637608002675,
          -0.2571327905035
        ],
        "ImagePositionPatient": [
          -612.32942219831,
          -626.95197276125,
          98.952294501316
        ],
        "ImageType": [
          "ORIGINAL",
          "PRIMARY",
          "M",
          "ND",
          "MOSAIC"
        ],
        "ImagedNucleus": "1H",
        "ImagingFrequency": 123.218565,
        "InPlanePhaseEncodingDirection": "COL",
        "MRAcquisitionType": "2D",
        "MagneticFieldStrength": 3.0,
        "Manufacturer": "SIEMENS",
        "ManufacturerModelName": "TrioTim",
        "Modality": "MR",
        "NumberOfAverages": 1.0,
        "NumberOfPhaseEncodingSteps": 68,
        "PercentPhaseFieldOfView": 100.0,
        "PercentSampling": 100.0,
        "PerformedProcedureStepStartTime": "102339.875000",
        "PhotometricInterpretation": "MONOCHROME2",
        "PixelBandwidth": 2451.0,
        "PixelRepresentation": 0,
        "PixelSpacing": [
          3.0,
          3.0
        ],
        "ProtocolName": "ep2d_bold_CardGameEPI_3",
        "RepetitionTime": 2000.0,
        "Rows": 408,
        "SAR": 0.16298443381878,
        "SamplesPerPixel": 1,
        "ScanOptions": "FS",
        "ScanningSequence": "EP",
        "SequenceName": "*epfid2d1_68",
        "SequenceVariant": "SK",
        "SeriesDescription": "ep2d_bold_CardGameEPI_3",
        "SeriesNumber": 11,
        "SeriesTime": "114205.046000",
        "SliceLocation": -48.461970777936,
        "SliceThickness": 2.5,
        "SmallestImagePixelValue": 0,
        "SoftwareVersions": "syngo MR B19",
        "SpacingBetweenSlices": 3.0000000176145,
        "SpecificCharacterSet": "ISO_IR 100",
        "StudyID": "1",
        "StudyTime": "102339.765000",
        "TransmitCoilName": "Body",
        "VariableFlipAngleFlag": "N",
        "WindowCenterWidthExplanation": "Algo1",
        "dBdt": 0.0
      },
      "slices": {}
    },
    "modality": "bold",
    "run_id": 3,
    "subject_id": "230",
    "task_id": "cardgame",
    "time": {
      "samples": {
        "AcquisitionNumber": [
          1,
          2,
          3,
          4,
          5,
          6,
          7,
          8,
          9,
          10,
          11,
          12,
          13,
          14,
          15,
          16,
          17,
          18,
          19,
          20,
          21,
          22,
          23,
          24,
          25,
          26,
          27,
          28,
          29,
          30,
          31,
          32,
          33,
          34,
          35,
          36,
          37,
          38,
          39,
          40,
          41,
          42,
          43,
          44,
          45,
          46,
          47,
          48,
          49,
          50,
          51,
          52,
          53,
          54,
          55,
          56,
          57,
          58,
          59,
          60,
          61,
          62,
          63,
          64,
          65,
          66,
          67,
          68,
          69,
          70,
          71,
          72,
          73,
          74,
          75,
          76,
          77,
          78,
          79,
          80,
          81,
          82,
          83,
          84,
          85,
          86,
          87,
          88,
          89,
          90,
          91,
          92,
          93,
          94,
          95,
          96,
          97,
          98,
          99,
          100,
          101,
          102,
          103,
          104,
          105,
          106,
          107,
          108,
          109,
          110,
          111,
          112,
          113,
          114,
          115,
          116,
          117,
          118,
          119,
          120,
          121,
          122,
          123,
          124,
          125,
          126,
          127,
          128,
          129,
          130,
          131,
          132,
          133,
          134,
          135,
          136,
          137,
          138,
          139,
          140,
          141,
          142,
          143,
          144,
          145,
          146,
          147,
          148,
          149,
          150,
          151,
          152,
          153,
          154,
          155,
          156,
          157,
          158,
          159,
          160,
          161,
          162,
          163,
          164,
          165,
          166,
          167,
          168,
          169,
          170,
          171,
          172,
          173,
          174,
          175,
          176,
          177,
          178,
          179,
          180,
          181,
          182,
          183,
          184,
          185,
          186,
          187,
          188,
          189,
          190,
          191,
          192,
          193,
          194,
          195,
          196,
          197,
          198,
          199,
          200,
          201,
          202,
          203,
          204,
          205,
          206,
          207,
          208,
          209,
          210,
          211,
          212,
          213,
          214,
          215,
          216,
          217,
          218,
          219,
          220,
          221,
          222,
          223,
          224,
          225,
          226,
          227,
          228,
          229,
          230,
          231,
          232,
          233,
          234,
          235,
          236,
          237,
          238,
          239,
          240,
          241,
          242,
          243,
          244,
          245,
          246,
          247,
          248,
          249,
          250,
          251,
          252,
          253,
          254,
          255,
          256,
          257,
          258
        ],
        "AcquisitionTime": [
          "114107.952500",
          "114109.960000",
          "114111.967500",
          "114113.975000",
          "114115.985000",
          "114117.992500",
          "114120.000000",
          "114122.007500",
          "114124.015000",
          "114126.025000",
          "114128.032500",
          "114130.040000",
          "114132.047500",
          "114134.055000",
          "114136.065000",
          "114138.072500",
          "114140.080000",
          "114142.087500",
          "114144.097500",
          "114146.105000",
          "114148.112500",
          "114150.120000",
          "114152.127500",
          "114154.137500",
          "114156.145000",
          "114158.152500",
          "114200.160000",
          "114202.167500",
          "114204.177500",
          "114206.185000",
          "114208.192500",
          "114210.200000",
          "114212.207500",
          "114214.217500",
          "114216.225000",
          "114218.232500",
          "114220.240000",
          "114222.250000",
          "114224.257500",
          "114226.265000",
          "114228.272500",
          "114230.280000",
          "114232.290000",
          "114234.297500",
          "114236.305000",
          "114238.312500",
          "114240.320000",
          "114242.330000",
          "114244.337500",
          "114246.345000",
          "114248.352500",
          "114250.362500",
          "114252.370000",
          "114254.377500",
          "114256.385000",
          "114258.392500",
          "114300.402500",
          "114302.410000",
          "114304.417500",
          "114306.425000",
          "114308.432500",
          "114310.442500",
          "114312.450000",
          "114314.457500",
          "114316.465000",
          "114318.475000",
          "114320.482500",
          "114322.490000",
          "114324.497500",
          "114326.505000",
          "114328.515000",
          "114330.522500",
          "114332.530000",
          "114334.537500",
          "114336.545000",
          "114338.555000",
          "114340.562500",
          "114342.570000",
          "114344.577500",
          "114346.585000",
          "114348.595000",
          "114350.602500",
          "114352.610000",
          "114354.617500",
          "114356.627500",
          "114358.635000",
          "114400.642500",
          "114402.650000",
          "114404.657500",
          "114406.667500",
          "114408.675000",
          "114410.682500",
          "114412.690000",
          "114414.697500",
          "114416.707500",
          "114418.715000",
          "114420.722500",
          "114422.730000",
          "114424.740000",
          "114426.747500",
          "114428.755000",
          "114430.762500",
          "114432.770000",
          "114434.780000",
          "114436.787500",
          "114438.795000",
          "114440.802500",
          "114442.810000",
          "114444.820000",
          "114446.827500",
          "114448.835000",
          "114450.842500",
          "114452.852500",
          "114454.860000",
          "114456.867500",
          "114458.875000",
          "114500.882500",
          "114502.892500",
          "114504.900000",
          "114506.907500",
          "114508.915000",
          "114510.922500",
          "114512.932500",
          "114514.940000",
          "114516.947500",
          "114518.955000",
          "114520.962500",
          "114522.972500",
          "114524.980000",
          "114526.987500",
          "114528.995000",
          "114531.005000",
          "114533.012500",
          "114535.020000",
          "114537.027500",
          "114539.035000",
          "114541.045000",
          "114543.052500",
          "114545.060000",
          "114547.067500",
          "114549.075000",
          "114551.085000",
          "114553.092500",
          "114555.100000",
          "114557.107500",
          "114559.117500",
          "114601.125000",
          "114603.132500",
          "114605.140000",
          "114607.147500",
          "114609.157500",
          "114611.165000",
          "114613.172500",
          "114615.180000",
          "114617.187500",
          "114619.197500",
          "114621.205000",
          "114623.212500",
          "114625.220000",
          "114627.230000",
          "114629.237500",
          "114631.245000",
          "114633.252500",
          "114635.260000",
          "114637.270000",
          "114639.277500",
          "114641.285000",
          "114643.292500",
          "114645.300000",
          "114647.310000",
          "114649.317500",
          "114651.325000",
          "114653.332500",
          "114655.342500",
          "114657.350000",
          "114659.357500",
          "114701.365000",
          "114703.372500",
          "114705.382500",
          "114707.390000",
          "114709.397500",
          "114711.405000",
          "114713.412500",
          "114715.422500",
          "114717.430000",
          "114719.437500",
          "114721.445000",
          "114723.452500",
          "114725.462500",
          "114727.470000",
          "114729.477500",
          "114731.485000",
          "114733.495000",
          "114735.502500",
          "114737.510000",
          "114739.517500",
          "114741.525000",
          "114743.535000",
          "114745.542500",
          "114747.550000",
          "114749.557500",
          "114751.565000",
          "114753.575000",
          "114755.582500",
          "114757.590000",
          "114759.597500",
          "114801.607500",
          "114803.615000",
          "114805.622500",
          "114807.630000",
          "114809.637500",
          "114811.647500",
          "114813.655000",
          "114815.662500",
          "114817.670000",
          "114819.677500",
          "114821.687500",
          "114823.695000",
          "114825.702500",
          "114827.710000",
          "114829.720000",
          "114831.727500",
          "114833.735000",
          "114835.742500",
          "114837.750000",
          "114839.760000",
          "114841.767500",
          "114843.775000",
          "114845.782500",
          "114847.790000",
          "114849.800000",
          "114851.807500",
          "114853.815000",
          "114855.822500",
          "114857.830000",
          "114859.840000",
          "114901.847500",
          "114903.855000",
          "114905.862500",
          "114907.872500",
          "114909.880000",
          "114911.887500",
          "114913.895000",
          "114915.902500",
          "114917.912500",
          "114919.920000",
          "114921.927500",
          "114923.935000",
          "114925.942500",
          "114927.952500",
          "114929.960000",
          "114931.967500",
          "114933.975000",
          "114935.985000",
          "114937.992500",
          "114940.000000",
          "114942.007500",
          "114944.015000"
        ],
        "ContentTime": [
          "114205.046000",
          "114205.046000",
          "114205.046000",
          "114205.062000",
          "114205.062000",
          "114205.062000",
          "114205.062000",
          "114205.062000",
          "114205.062000",
          "114205.062000",
          "114205.078000",
          "114205.078000",
          "114205.078000",
          "114205.078000",
          "114205.078000",
          "114205.078000",
          "114205.078000",
          "114205.093000",
          "114205.093000",
          "114205.093000",
          "114205.093000",
          "114205.093000",
          "114205.093000",
          "114205.093000",
          "114205.093000",
          "114205.109000",
          "114205.109000",
          "114205.109000",
          "114245.046000",
          "114245.046000",
          "114245.046000",
          "114245.046000",
          "114245.046000",
          "114245.062000",
          "114245.062000",
          "114245.062000",
          "114245.062000",
          "114245.062000",
          "114245.062000",
          "114245.062000",
          "114245.062000",
          "114245.078000",
          "114245.078000",
          "114245.078000",
          "114245.078000",
          "114245.078000",
          "114245.078000",
          "114245.078000",
          "114325.046000",
          "114325.046000",
          "114325.046000",
          "114325.046000",
          "114325.046000",
          "114325.062000",
          "114325.062000",
          "114325.062000",
          "114325.062000",
          "114325.062000",
          "114325.062000",
          "114325.062000",
          "114325.078000",
          "114325.078000",
          "114325.078000",
          "114325.078000",
          "114325.078000",
          "114325.078000",
          "114325.078000",
          "114325.093000",
          "114405.046000",
          "114405.046000",
          "114405.046000",
          "114405.046000",
          "114405.046000",
          "114405.062000",
          "114405.062000",
          "114405.062000",
          "114405.078000",
          "114405.078000",
          "114405.078000",
          "114405.078000",
          "114405.078000",
          "114405.078000",
          "114405.078000",
          "114405.093000",
          "114405.093000",
          "114405.093000",
          "114405.093000",
          "114405.093000",
          "114445.046000",
          "114445.046000",
          "114445.046000",
          "114445.046000",
          "114445.046000",
          "114445.062000",
          "114445.062000",
          "114445.062000",
          "114445.062000",
          "114445.062000",
          "114445.062000",
          "114445.062000",
          "114445.078000",
          "114445.078000",
          "114445.078000",
          "114445.078000",
          "114445.078000",
          "114445.078000",
          "114445.078000",
          "114445.093000",
          "114525.046000",
          "114525.046000",
          "114525.046000",
          "114525.046000",
          "114525.046000",
          "114525.062000",
          "114525.062000",
          "114525.062000",
          "114525.062000",
          "114525.062000",
          "114525.062000",
          "114525.078000",
          "114525.078000",
          "114525.078000",
          "114525.078000",
          "114525.078000",
          "114525.078000",
          "114525.078000",
          "114525.093000",
          "114525.093000",
          "114605.046000",
          "114605.046000",
          "114605.046000",
          "114605.046000",
          "114605.046000",
          "114605.062000",
          "114605.062000",
          "114605.062000",
          "114605.062000",
          "114605.062000",
          "114605.062000",
          "114605.062000",
          "114605.062000",
          "114605.078000",
          "114605.078000",
          "114605.078000",
          "114605.078000",
          "114605.078000",
          "114605.093000",
          "114605.093000",
          "114645.046000",
          "114645.046000",
          "114645.046000",
          "114645.046000",
          "114645.046000",
          "114645.062000",
          "114645.062000",
          "114645.062000",
          "114645.078000",
          "114645.078000",
          "114645.078000",
          "114645.078000",
          "114645.078000",
          "114645.078000",
          "114645.078000",
          "114645.078000",
          "114645.093000",
          "114645.093000",
          "114645.093000",
          "114645.093000",
          "114725.046000",
          "114725.046000",
          "114725.046000",
          "114725.046000",
          "114725.046000",
          "114725.046000",
          "114725.062000",
          "114725.062000",
          "114725.062000",
          "114725.062000",
          "114725.062000",
          "114725.062000",
          "114725.078000",
          "114725.078000",
          "114725.078000",
          "114725.078000",
          "114725.078000",
          "114725.078000",
          "114725.078000",
          "114725.078000",
          "114805.046000",
          "114805.046000",
          "114805.046000",
          "114805.046000",
          "114805.046000",
          "114805.062000",
          "114805.062000",
          "114805.062000",
          "114805.062000",
          "114805.062000",
          "114805.062000",
          "114805.062000",
          "114805.062000",
          "114805.078000",
          "114805.078000",
          "114805.078000",
          "114805.078000",
          "114805.078000",
          "114805.078000",
          "114805.078000",
          "114845.046000",
          "114845.046000",
          "114845.046000",
          "114845.046000",
          "114845.046000",
          "114845.062000",
          "114845.062000",
          "114845.062000",
          "114845.062000",
          "114845.062000",
          "114845.062000",
          "114845.062000",
          "114845.062000",
          "114845.078000",
          "114845.078000",
          "114845.078000",
          "114845.078000",
          "114845.078000",
          "114845.078000",
          "114845.078000",
          "114925.046000",
          "114925.046000",
          "114925.046000",
          "114925.046000",
          "114925.046000",
          "114925.062000",
          "114925.062000",
          "114925.062000",
          "114925.062000",
          "114925.062000",
          "114925.062000",
          "114925.062000",
          "114925.062000",
          "114925.078000",
          "114925.078000",
          "114925.078000",
          "114925.078000",
          "114925.078000",
          "114925.093000",
          "114925.093000",
          "114944.203000",
          "114944.203000",
          "114944.203000",
          "114944.203000",
          "114944.203000",
          "114944.218000",
          "114944.218000",
          "114944.218000",
          "114944.218000",
          "114944.218000"
        ],
        "InstanceCreationTime": [
          "114205.046000",
          "114205.046000",
          "114205.046000",
          "114205.062000",
          "114205.062000",
          "114205.062000",
          "114205.062000",
          "114205.062000",
          "114205.062000",
          "114205.062000",
          "114205.078000",
          "114205.078000",
          "114205.078000",
          "114205.078000",
          "114205.078000",
          "114205.078000",
          "114205.078000",
          "114205.093000",
          "114205.093000",
          "114205.093000",
          "114205.093000",
          "114205.093000",
          "114205.093000",
          "114205.093000",
          "114205.093000",
          "114205.109000",
          "114205.109000",
          "114205.109000",
          "114245.046000",
          "114245.046000",
          "114245.046000",
          "114245.046000",
          "114245.046000",
          "114245.062000",
          "114245.062000",
          "114245.062000",
          "114245.062000",
          "114245.062000",
          "114245.062000",
          "114245.062000",
          "114245.062000",
          "114245.078000",
          "114245.078000",
          "114245.078000",
          "114245.078000",
          "114245.078000",
          "114245.078000",
          "114245.078000",
          "114325.046000",
          "114325.046000",
          "114325.046000",
          "114325.046000",
          "114325.046000",
          "114325.062000",
          "114325.062000",
          "114325.062000",
          "114325.062000",
          "114325.062000",
          "114325.062000",
          "114325.062000",
          "114325.078000",
          "114325.078000",
          "114325.078000",
          "114325.078000",
          "114325.078000",
          "114325.078000",
          "114325.078000",
          "114325.093000",
          "114405.046000",
          "114405.046000",
          "114405.046000",
          "114405.046000",
          "114405.046000",
          "114405.062000",
          "114405.062000",
          "114405.062000",
          "114405.078000",
          "114405.078000",
          "114405.078000",
          "114405.078000",
          "114405.078000",
          "114405.078000",
          "114405.078000",
          "114405.093000",
          "114405.093000",
          "114405.093000",
          "114405.093000",
          "114405.093000",
          "114445.046000",
          "114445.046000",
          "114445.046000",
          "114445.046000",
          "114445.046000",
          "114445.062000",
          "114445.062000",
          "114445.062000",
          "114445.062000",
          "114445.062000",
          "114445.062000",
          "114445.062000",
          "114445.078000",
          "114445.078000",
          "114445.078000",
          "114445.078000",
          "114445.078000",
          "114445.078000",
          "114445.078000",
          "114445.093000",
          "114525.046000",
          "114525.046000",
          "114525.046000",
          "114525.046000",
          "114525.046000",
          "114525.062000",
          "114525.062000",
          "114525.062000",
          "114525.062000",
          "114525.062000",
          "114525.062000",
          "114525.078000",
          "114525.078000",
          "114525.078000",
          "114525.078000",
          "114525.078000",
          "114525.078000",
          "114525.078000",
          "114525.093000",
          "114525.093000",
          "114605.046000",
          "114605.046000",
          "114605.046000",
          "114605.046000",
          "114605.046000",
          "114605.062000",
          "114605.062000",
          "114605.062000",
          "114605.062000",
          "114605.062000",
          "114605.062000",
          "114605.062000",
          "114605.062000",
          "114605.078000",
          "114605.078000",
          "114605.078000",
          "114605.078000",
          "114605.078000",
          "114605.093000",
          "114605.093000",
          "114645.046000",
          "114645.046000",
          "114645.046000",
          "114645.046000",
          "114645.046000",
          "114645.062000",
          "114645.062000",
          "114645.062000",
          "114645.078000",
          "114645.078000",
          "114645.078000",
          "114645.078000",
          "114645.078000",
          "114645.078000",
          "114645.078000",
          "114645.078000",
          "114645.093000",
          "114645.093000",
          "114645.093000",
          "114645.093000",
          "114725.046000",
          "114725.046000",
          "114725.046000",
          "114725.046000",
          "114725.046000",
          "114725.046000",
          "114725.062000",
          "114725.062000",
          "114725.062000",
          "114725.062000",
          "114725.062000",
          "114725.062000",
          "114725.078000",
          "114725.078000",
          "114725.078000",
          "114725.078000",
          "114725.078000",
          "114725.078000",
          "114725.078000",
          "114725.078000",
          "114805.046000",
          "114805.046000",
          "114805.046000",
          "114805.046000",
          "114805.046000",
          "114805.062000",
          "114805.062000",
          "114805.062000",
          "114805.062000",
          "114805.062000",
          "114805.062000",
          "114805.062000",
          "114805.062000",
          "114805.078000",
          "114805.078000",
          "114805.078000",
          "114805.078000",
          "114805.078000",
          "114805.078000",
          "114805.078000",
          "114845.046000",
          "114845.046000",
          "114845.046000",
          "114845.046000",
          "114845.046000",
          "114845.062000",
          "114845.062000",
          "114845.062000",
          "114845.062000",
          "114845.062000",
