{
  "aor": 0.0022621757322175734,
  "aqi": 0.012138104728033472,
  "bids_meta": {
    "AcquisitionMatrixPE": 68,
    "AcquisitionNumber": 1,
    "AcquisitionTime": "11:29:31.175000",
    "BandwidthPerPixelPhaseEncode": 31.289,
    "BaseResolution": 68,
    "CogAtlasID": "TODO",
    "CoilString": "C:HEA;HEP",
    "ConversionSoftware": "dcm2niix",
    "ConversionSoftwareVersion": "v1.0.20190902",
    "DerivedVendorReportedEchoSpacing": 0.000470002,
    "DeviceSerialNumber": "35450",
    "DwellTime": 3e-06,
    "EchoTime": 0.023,
    "EffectiveEchoSpacing": 0.000470002,
    "FlipAngle": 76,
    "ImageOrientationPatientDICOM": [
      0.999987,
      0.000730374,
      0.00513201,
      2.94115e-08,
      0.990023,
      -0.140903
    ],
    "ImageType": [
      "ORIGINAL",
      "PRIMARY",
      "M",
      "ND",
      "MOSAIC"
    ],
    "ImagingFrequency": 123.219,
    "InPlanePhaseEncodingDirectionDICOM": "COL",
    "InstitutionAddress": "Univeristy_Ave._197_Newark_North_East_US_07102-1814",
    "InstitutionName": "RUBIC",
    "InstitutionalDepartmentName": "Department",
    "MRAcquisitionType": "2D",
    "MagneticFieldStrength": 3,
    "Manufacturer": "Siemens",
    "ManufacturersModelName": "TrioTim",
    "Modality": "MR",
    "PartialFourier": 1,
    "PatientPosition": "HFS",
    "PercentPhaseFOV": 100,
    "PhaseEncodingDirection": "j-",
    "PhaseEncodingSteps": 68,
    "PhaseResolution": 1,
    "PixelBandwidth": 2451,
    "ProcedureStepDescription": "Krekelberg_David",
    "ProtocolName": "ep2d_bold_RestEPI_4",
    "PulseSequenceDetails": "%SiemensSeq%_ep2d_bold",
    "ReceiveCoilName": "HeadMatrix",
    "ReconMatrixPE": 68,
    "RepetitionTime": 2,
    "SAR": 0.168853,
    "ScanOptions": "FS",
    "ScanningSequence": "EP",
    "SequenceName": "_epfid2d1_68",
    "SequenceVariant": "SK",
    "SeriesDescription": "ep2d_bold_RestEPI_4",
    "SeriesNumber": 10,
    "ShimSetting": [
      1933,
      -628,
      -7617,
      720,
      27,
      286,
      -151,
      -113
    ],
    "SliceThickness": 2.5,
    "SliceTiming": [
      1.9525,
      1.8975,
      1.84,
      1.785,
      1.73,
      1.6725,
      1.6175,
      1.5625,
      1.505,
      1.45,
      1.395,
      1.34,
      1.2825,
      1.2275,
      1.1725,
      1.115,
      1.06,
      1.005,
      0.9475,
      0.8925,
      0.8375,
      0.7825,
      0.725,
      0.67,
      0.615,
      0.5575,
      0.5025,
      0.4475,
      0.39,
      0.335,
      0.28,
      0.2225,
      0.1675,
      0.1125,
      0.0575,
      0
    ],
    "SoftwareVersions": "syngo_MR_B19",
    "SpacingBetweenSlices": 3,
    "StationName": "MRC35450",
    "TaskName": "rest",
    "TotalReadoutTime": 0.0314901,
    "TxRefAmp": 347.22,
    "dataset": "<unset>",
    "dcmmeta_affine": [
      [
        -2.999959707260132,
        8.823447927852612e-08,
        0.015551166608929634,
        101.74214172363281
      ],
      [
        -0.002191120758652687,
        2.9700701236724854,
        -0.42270368337631226,
        -72.23542022705078
      ],
      [
        0.01539603155106306,
        0.4227093756198883,
        2.9700303077697754,
        -52.21115493774414
      ],
      [
        0.0,
        0.0,
        0.0,
        1.0
      ]
    ],
    "dcmmeta_reorient_transform": [
      [
        0.0,
        -1.0,
        0.0,
        67.0
      ],
      [
        1.0,
        0.0,
        0.0,
        0.0
      ],
      [
        0.0,
        0.0,
        1.0,
        0.0
      ],
      [
        0.0,
        0.0,
        0.0,
        1.0
      ]
    ],
    "dcmmeta_shape": [
      68,
      68,
      36,
      240
    ],
    "dcmmeta_slice_dim": 2,
    "dcmmeta_version": 0.6,
    "global": {
      "const": {
        "AcquisitionMatrix": [
          68,
          0,
          0,
          68
        ],
        "AngioFlag": "N",
        "BitsAllocated": 16,
        "BitsStored": 12,
        "Columns": 408,
        "EchoNumbers": 1,
        "EchoTime": 23.0,
        "EchoTrainLength": 1,
        "FlipAngle": 76.0,
        "HighBit": 11,
        "ImageOrientationPatient": [
          0.99998656442071,
          0.0007303735784,
          0.00513201057084,
          2.9411492e-08,
          0.99002338804893,
          -0.1409031267081
        ],
        "ImagePositionPatient": [
          -611.73531127442,
          -632.04370232345,
          45.353641826024
        ],
        "ImageType": [
          "ORIGINAL",
          "PRIMARY",
          "M",
          "ND",
          "MOSAIC"
        ],
        "ImagedNucleus": "1H",
        "ImagingFrequency": 123.218521,
        "InPlanePhaseEncodingDirection": "COL",
        "MRAcquisitionType": "2D",
        "MagneticFieldStrength": 3.0,
        "Manufacturer": "SIEMENS",
        "ManufacturerModelName": "TrioTim",
        "Modality": "MR",
        "NumberOfAverages": 1.0,
        "NumberOfPhaseEncodingSteps": 68,
        "PercentPhaseFieldOfView": 100.0,
        "PercentSampling": 100.0,
        "PerformedProcedureStepStartTime": "101123.890000",
        "PhotometricInterpretation": "MONOCHROME2",
        "PixelBandwidth": 2451.0,
        "PixelRepresentation": 0,
        "PixelSpacing": [
          3.0,
          3.0
        ],
        "ProtocolName": "ep2d_bold_RestEPI_4",
        "RepetitionTime": 2000.0,
        "Rows": 408,
        "SAR": 0.16885295023355,
        "SamplesPerPixel": 1,
        "ScanOptions": "FS",
        "ScanningSequence": "EP",
        "SequenceName": "*epfid2d1_68",
        "SequenceVariant": "SK",
        "SeriesDescription": "ep2d_bold_RestEPI_4",
        "SeriesNumber": 10,
        "SeriesTime": "113022.437000",
        "SliceLocation": -40.984108526347,
        "SliceThickness": 2.5,
        "SmallestImagePixelValue": 0,
        "SoftwareVersions": "syngo MR B19",
        "SpacingBetweenSlices": 2.9999999555374,
        "SpecificCharacterSet": "ISO_IR 100",
        "StudyID": "1",
        "StudyTime": "101123.796000",
        "TransmitCoilName": "Body",
        "VariableFlipAngleFlag": "N",
        "WindowCenterWidthExplanation": "Algo1",
        "dBdt": 0.0
      },
      "slices": {}
    },
    "modality": "bold",
    "run_id": 4,
    "subject_id": "237",
    "task_id": "rest",
    "time": {
      "samples": {
        "AcquisitionNumber": [
          1,
          2,
          3,
          4,
          5,
          6,
          7,
          8,
          9,
          10,
          11,
          12,
          13,
          14,
          15,
          16,
          17,
          18,
          19,
          20,
          21,
          22,
          23,
          24,
          25,
          26,
          27,
          28,
          29,
          30,
          31,
          32,
          33,
          34,
          35,
          36,
          37,
          38,
          39,
          40,
          41,
          42,
          43,
          44,
          45,
          46,
          47,
          48,
          49,
          50,
          51,
          52,
          53,
          54,
          55,
          56,
          57,
          58,
          59,
          60,
          61,
          62,
          63,
          64,
          65,
          66,
          67,
          68,
          69,
          70,
          71,
          72,
          73,
          74,
          75,
          76,
          77,
          78,
          79,
          80,
          81,
          82,
          83,
          84,
          85,
          86,
          87,
          88,
          89,
          90,
          91,
          92,
          93,
          94,
          95,
          96,
          97,
          98,
          99,
          100,
          101,
          102,
          103,
          104,
          105,
          106,
          107,
          108,
          109,
          110,
          111,
          112,
          113,
          114,
          115,
          116,
          117,
          118,
          119,
          120,
          121,
          122,
          123,
          124,
          125,
          126,
          127,
          128,
          129,
          130,
          131,
          132,
          133,
          134,
          135,
          136,
          137,
          138,
          139,
          140,
          141,
          142,
          143,
          144,
          145,
          146,
          147,
          148,
          149,
          150,
          151,
          152,
          153,
          154,
          155,
          156,
          157,
          158,
          159,
          160,
          161,
          162,
          163,
          164,
          165,
          166,
          167,
          168,
          169,
          170,
          171,
          172,
          173,
          174,
          175,
          176,
          177,
          178,
          179,
          180,
          181,
          182,
          183,
          184,
          185,
          186,
          187,
          188,
          189,
          190,
          191,
          192,
          193,
          194,
          195,
          196,
          197,
          198,
          199,
          200,
          201,
          202,
          203,
          204,
          205,
          206,
          207,
          208,
          209,
          210,
          211,
          212,
          213,
          214,
          215,
          216,
          217,
          218,
          219,
          220,
          221,
          222,
          223,
          224,
          225,
          226,
          227,
          228,
          229,
          230,
          231,
          232,
          233,
          234,
          235,
          236,
          237,
          238,
          239,
          240
        ],
        "AcquisitionTime": [
          "112931.175000",
          "112933.182500",
          "112935.190000",
          "112937.200000",
          "112939.207500",
          "112941.215000",
          "112943.222500",
          "112945.230000",
          "112947.240000",
          "112949.247500",
          "112951.255000",
          "112953.262500",
          "112955.270000",
          "112957.280000",
          "112959.287500",
          "113001.295000",
          "113003.302500",
          "113005.312500",
          "113007.320000",
          "113009.327500",
          "113011.335000",
          "113013.342500",
          "113015.352500",
          "113017.360000",
          "113019.367500",
          "113021.375000",
          "113023.382500",
          "113025.392500",
          "113027.400000",
          "113029.407500",
          "113031.415000",
          "113033.425000",
          "113035.432500",
          "113037.440000",
          "113039.447500",
          "113041.455000",
          "113043.465000",
          "113045.472500",
          "113047.480000",
          "113049.487500",
          "113051.495000",
          "113053.505000",
          "113055.512500",
          "113057.520000",
          "113059.527500",
          "113101.537500",
          "113103.545000",
          "113105.552500",
          "113107.560000",
          "113109.567500",
          "113111.577500",
          "113113.585000",
          "113115.592500",
          "113117.600000",
          "113119.607500",
          "113121.617500",
          "113123.625000",
          "113125.632500",
          "113127.640000",
          "113129.647500",
          "113131.657500",
          "113133.665000",
          "113135.672500",
          "113137.680000",
          "113139.690000",
          "113141.697500",
          "113143.705000",
          "113145.712500",
          "113147.720000",
          "113149.730000",
          "113151.737500",
          "113153.745000",
          "113155.752500",
          "113157.760000",
          "113159.770000",
          "113201.777500",
          "113203.785000",
          "113205.792500",
          "113207.802500",
          "113209.810000",
          "113211.817500",
          "113213.825000",
          "113215.832500",
          "113217.842500",
          "113219.850000",
          "113221.857500",
          "113223.865000",
          "113225.872500",
          "113227.882500",
          "113229.890000",
          "113231.897500",
          "113233.905000",
          "113235.915000",
          "113237.922500",
          "113239.930000",
          "113241.937500",
          "113243.945000",
          "113245.955000",
          "113247.962500",
          "113249.970000",
          "113251.977500",
          "113253.985000",
          "113255.995000",
          "113258.002500",
          "113300.010000",
          "113302.017500",
          "113304.025000",
          "113306.035000",
          "113308.042500",
          "113310.050000",
          "113312.057500",
          "113314.067500",
          "113316.075000",
          "113318.082500",
          "113320.090000",
          "113322.097500",
          "113324.107500",
          "113326.115000",
          "113328.122500",
          "113330.130000",
          "113332.137500",
          "113334.147500",
          "113336.155000",
          "113338.162500",
          "113340.170000",
          "113342.180000",
          "113344.187500",
          "113346.195000",
          "113348.202500",
          "113350.210000",
          "113352.220000",
          "113354.227500",
          "113356.235000",
          "113358.242500",
          "113400.250000",
          "113402.260000",
          "113404.267500",
          "113406.275000",
          "113408.282500",
          "113410.292500",
          "113412.300000",
          "113414.307500",
          "113416.315000",
          "113418.322500",
          "113420.332500",
          "113422.340000",
          "113424.347500",
          "113426.355000",
          "113428.362500",
          "113430.372500",
          "113432.380000",
          "113434.387500",
          "113436.395000",
          "113438.402500",
          "113440.412500",
          "113442.420000",
          "113444.427500",
          "113446.435000",
          "113448.445000",
          "113450.452500",
          "113452.460000",
          "113454.467500",
          "113456.475000",
          "113458.485000",
          "113500.492500",
          "113502.500000",
          "113504.507500",
          "113506.515000",
          "113508.525000",
          "113510.532500",
          "113512.540000",
          "113514.547500",
          "113516.557500",
          "113518.565000",
          "113520.572500",
          "113522.580000",
          "113524.587500",
          "113526.597500",
          "113528.605000",
          "113530.612500",
          "113532.620000",
          "113534.627500",
          "113536.637500",
          "113538.645000",
          "113540.652500",
          "113542.660000",
          "113544.670000",
          "113546.677500",
          "113548.685000",
          "113550.692500",
          "113552.700000",
          "113554.710000",
          "113556.717500",
          "113558.725000",
          "113600.732500",
          "113602.740000",
          "113604.750000",
          "113606.757500",
          "113608.765000",
          "113610.772500",
          "113612.780000",
          "113614.790000",
          "113616.797500",
          "113618.805000",
          "113620.812500",
          "113622.822500",
          "113624.830000",
          "113626.837500",
          "113628.845000",
          "113630.852500",
          "113632.862500",
          "113634.870000",
          "113636.877500",
          "113638.885000",
          "113640.892500",
          "113642.902500",
          "113644.910000",
          "113646.917500",
          "113648.925000",
          "113650.935000",
          "113652.942500",
          "113654.950000",
          "113656.957500",
          "113658.965000",
          "113700.975000",
          "113702.982500",
          "113704.990000",
          "113706.997500",
          "113709.005000",
          "113711.015000",
          "113713.022500",
          "113715.030000",
          "113717.037500",
          "113719.047500",
          "113721.055000",
          "113723.062500",
          "113725.070000",
          "113727.077500",
          "113729.087500",
          "113731.095000"
        ],
        "ContentTime": [
          "113022.437000",
          "113022.453000",
          "113022.453000",
          "113022.453000",
          "113022.453000",
          "113022.453000",
          "113022.453000",
          "113022.453000",
          "113022.453000",
          "113022.468000",
          "113022.468000",
          "113022.468000",
          "113022.468000",
          "113022.468000",
          "113022.468000",
          "113022.468000",
          "113022.484000",
          "113022.484000",
          "113022.484000",
          "113022.484000",
          "113022.484000",
          "113022.484000",
          "113022.484000",
          "113022.500000",
          "113022.500000",
          "113102.437000",
          "113102.437000",
          "113102.437000",
          "113102.453000",
          "113102.453000",
          "113102.453000",
          "113102.453000",
          "113102.453000",
          "113102.453000",
          "113102.453000",
          "113102.453000",
          "113102.468000",
          "113102.468000",
          "113102.468000",
          "113102.468000",
          "113102.468000",
          "113102.468000",
          "113102.468000",
          "113102.468000",
          "113102.484000",
          "113142.437000",
          "113142.437000",
          "113142.437000",
          "113142.453000",
          "113142.453000",
          "113142.453000",
          "113142.453000",
          "113142.453000",
          "113142.453000",
          "113142.453000",
          "113142.453000",
          "113142.468000",
          "113142.468000",
          "113142.468000",
          "113142.468000",
          "113142.468000",
          "113142.468000",
          "113142.468000",
          "113142.484000",
          "113142.484000",
          "113222.437000",
          "113222.437000",
          "113222.437000",
          "113222.437000",
          "113222.453000",
          "113222.453000",
          "113222.453000",
          "113222.453000",
          "113222.453000",
          "113222.453000",
          "113222.453000",
          "113222.453000",
          "113222.468000",
          "113222.468000",
          "113222.468000",
          "113222.468000",
          "113222.468000",
          "113222.468000",
          "113222.468000",
          "113222.484000",
          "113302.437000",
          "113302.437000",
          "113302.437000",
          "113302.453000",
          "113302.453000",
          "113302.453000",
          "113302.453000",
          "113302.453000",
          "113302.453000",
          "113302.453000",
          "113302.453000",
          "113302.468000",
          "113302.468000",
          "113302.468000",
          "113302.468000",
          "113302.468000",
          "113302.468000",
          "113302.468000",
          "113302.484000",
          "113302.484000",
          "113342.437000",
          "113342.437000",
          "113342.437000",
          "113342.437000",
          "113342.453000",
          "113342.453000",
          "113342.453000",
          "113342.453000",
          "113342.453000",
          "113342.453000",
          "113342.453000",
          "113342.468000",
          "113342.468000",
          "113342.468000",
          "113342.468000",
          "113342.468000",
          "113342.468000",
          "113342.468000",
          "113342.484000",
          "113342.484000",
          "113422.437000",
          "113422.437000",
          "113422.437000",
          "113422.453000",
          "113422.453000",
          "113422.453000",
          "113422.453000",
          "113422.453000",
          "113422.453000",
          "113422.453000",
          "113422.453000",
          "113422.468000",
          "113422.468000",
          "113422.468000",
          "113422.468000",
          "113422.468000",
          "113422.468000",
          "113422.468000",
          "113422.468000",
          "113422.484000",
          "113502.437000",
          "113502.437000",
          "113502.437000",
          "113502.437000",
          "113502.453000",
          "113502.453000",
          "113502.453000",
          "113502.453000",
          "113502.453000",
          "113502.453000",
          "113502.453000",
          "113502.468000",
          "113502.468000",
          "113502.468000",
          "113502.468000",
          "113502.468000",
          "113502.468000",
          "113502.468000",
          "113502.468000",
          "113502.484000",
          "113542.437000",
          "113542.437000",
          "113542.437000",
          "113542.437000",
          "113542.453000",
          "113542.453000",
          "113542.453000",
          "113542.453000",
          "113542.453000",
          "113542.453000",
          "113542.453000",
          "113542.468000",
          "113542.468000",
          "113542.468000",
          "113542.468000",
          "113542.468000",
          "113542.468000",
          "113542.468000",
          "113542.484000",
          "113542.484000",
          "113622.437000",
          "113622.437000",
          "113622.437000",
          "113622.437000",
          "113622.453000",
          "113622.453000",
          "113622.453000",
          "113622.453000",
          "113622.453000",
          "113622.453000",
          "113622.453000",
          "113622.468000",
          "113622.468000",
          "113622.468000",
          "113622.468000",
          "113622.468000",
          "113622.468000",
          "113622.468000",
          "113622.468000",
          "113622.484000",
          "113702.437000",
          "113702.437000",
          "113702.437000",
          "113702.437000",
          "113702.453000",
          "113702.453000",
          "113702.453000",
          "113702.453000",
          "113702.453000",
          "113702.453000",
          "113702.453000",
          "113702.468000",
          "113702.468000",
          "113702.468000",
          "113702.468000",
          "113702.468000",
          "113702.468000",
          "113702.468000",
          "113702.468000",
          "113702.484000",
          "113731.593000",
          "113731.593000",
          "113731.609000",
          "113731.609000",
          "113731.609000",
          "113731.609000",
          "113731.609000",
          "113731.609000",
          "113731.609000",
          "113731.625000",
          "113731.625000",
          "113731.625000",
          "113731.625000",
          "113731.625000",
          "113731.625000"
        ],
        "InstanceCreationTime": [
          "113022.437000",
          "113022.453000",
          "113022.453000",
          "113022.453000",
          "113022.453000",
          "113022.453000",
          "113022.453000",
          "113022.453000",
          "113022.453000",
          "113022.468000",
          "113022.468000",
          "113022.468000",
          "113022.468000",
          "113022.468000",
          "113022.468000",
          "113022.468000",
          "113022.484000",
          "113022.484000",
          "113022.484000",
          "113022.484000",
          "113022.484000",
          "113022.484000",
          "113022.484000",
          "113022.500000",
          "113022.500000",
          "113102.437000",
          "113102.437000",
          "113102.437000",
          "113102.453000",
          "113102.453000",
          "113102.453000",
          "113102.453000",
          "113102.453000",
          "113102.453000",
          "113102.453000",
          "113102.453000",
          "113102.468000",
          "113102.468000",
          "113102.468000",
          "113102.468000",
          "113102.468000",
          "113102.468000",
          "113102.468000",
          "113102.468000",
          "113102.484000",
          "113142.437000",
          "113142.437000",
          "113142.437000",
          "113142.453000",
          "113142.453000",
          "113142.453000",
          "113142.453000",
          "113142.453000",
          "113142.453000",
          "113142.453000",
          "113142.453000",
          "113142.468000",
          "113142.468000",
          "113142.468000",
          "113142.468000",
          "113142.468000",
          "113142.468000",
          "113142.468000",
          "113142.484000",
          "113142.484000",
          "113222.437000",
          "113222.437000",
          "113222.437000",
          "113222.437000",
          "113222.453000",
          "113222.453000",
          "113222.453000",
          "113222.453000",
          "113222.453000",
          "113222.453000",
          "113222.453000",
          "113222.453000",
          "113222.468000",
          "113222.468000",
          "113222.468000",
          "113222.468000",
          "113222.468000",
          "113222.468000",
          "113222.468000",
          "113222.484000",
          "113302.437000",
          "113302.437000",
          "113302.437000",
          "113302.453000",
          "113302.453000",
          "113302.453000",
          "113302.453000",
          "113302.453000",
          "113302.453000",
          "113302.453000",
          "113302.453000",
          "113302.468000",
          "113302.468000",
          "113302.468000",
          "113302.468000",
          "113302.468000",
          "113302.468000",
          "113302.468000",
          "113302.484000",
          "113302.484000",
          "113342.437000",
          "113342.437000",
          "113342.437000",
          "113342.437000",
          "113342.453000",
          "113342.453000",
          "113342.453000",
          "113342.453000",
          "113342.453000",
          "113342.453000",
          "113342.453000",
          "113342.468000",
          "113342.468000",
          "113342.468000",
          "113342.468000",
          "113342.468000",
          "113342.468000",
          "113342.468000",
          "113342.484000",
          "113342.484000",
          "113422.437000",
          "113422.437000",
          "113422.437000",
          "113422.453000",
          "113422.453000",
          "113422.453000",
          "113422.453000",
          "113422.453000",
          "113422.453000",
          "113422.453000",
          "113422.453000",
          "113422.468000",
          "113422.468000",
          "113422.468000",
          "113422.468000",
          "113422.468000",
          "113422.468000",
          "113422.468000",
          "113422.468000",
          "113422.484000",
          "113502.437000",
          "113502.437000",
          "113502.437000",
          "113502.437000",
          "113502.453000",
          "113502.453000",
          "113502.453000",
          "113502.453000",
          "113502.453000",
          "113502.453000",
          "113502.453000",
          "113502.468000",
          "113502.468000",
          "113502.468000",
          "113502.468000",
          "113502.468000",
          "113502.468000",
          "113502.468000",
          "113502.468000",
          "113502.484000",
          "113542.437000",
          "113542.437000",
          "113542.437000",
          "113542.437000",
          "113542.453000",
          "113542.453000",
          "113542.453000",
          "113542.453000",
          "113542.453000",
          "113542.453000",
          "113542.453000",
          "113542.468000",
          "113542.468000",
          "113542.468000",
          "113542.468000",
          "113542.468000",
          "113542.468000",
          "113542.468000",
          "113542.484000",
          "113542.484000",
          "113622.437000",
          "113622.437000",
          "113622.437000",
          "113622.437000",
          "113622.453000",
          "113622.453000",
          "113622.453000",
          "113622.453000",
          "113622.453000",
          "113622.453000",
          "113622.453000",
          "113622.468000",
          "113622.468000",
          "113622.468000",
          "113622.468000",
          "113622.468000",
          "113622.468000",
          "113622.468000",
          "113622.468000",
          "113622.484000",
          "113702.437000",
          "113702.437000",
          "113702.437000",
          "113702.437000",
          "113702.453000",
          "113702.453000",
          "113702.453000",
          "113702.453000",
          "113702.453000",
          "113702.453000",
          "113702.453000",
          "113702.468000",
          "113702.468000",
          "113702.468000",
          "113702.468000",
          "113702.468000",
          "113702.468000",
          "113702.468000",
          "113702.468000",
          "113702.484000",
          "113731.593000",
          "113731.593000",
          "113731.609000",
          "113731.609000",
          "113731.609000",
          "113731.609000",
          "113731.609000",
          "113731.609000",
          "113731.609000",
          "113731.625000",
          "113731.625000",
          "113731.625000",
          "113731.625000",
          "113731.625000",
          "113731.625000"
        ],
        "InstanceNumber": [
          1,
          2,
          3,
          4,
          5,
          6,
          7,
          8,
          9,
          10,
          11,
          12,
          13,
          14,
          15,
          16,
          17,
          18,
          19,
          20,
          21,
          22,
          23,
          24,
          25,
          26,
          27,
          28,
          29,
          30,
          31,
          32,
          33,
          34,
          35,
          36,
          37,
          38,
          39,
          40,
          41,
          42,
          43,
          44,
          45,
