{
  "aor": 0.004207041666666666,
  "aqi": 0.009590837041666666,
  "bids_meta": {
    "AcquisitionMatrixPE": 68,
    "AcquisitionNumber": 1,
    "AcquisitionTime": "11:11:31.880000",
    "BandwidthPerPixelPhaseEncode": 31.289,
    "BaseResolution": 68,
    "CogAtlasID": "TODO",
    "CoilString": "C:HEA;HEP",
    "ConversionSoftware": "dcm2niix",
    "ConversionSoftwareVersion": "v1.0.20190902",
    "DerivedVendorReportedEchoSpacing": 0.000470002,
    "DeviceSerialNumber": "35450",
    "DwellTime": 3e-06,
    "EchoTime": 0.023,
    "EffectiveEchoSpacing": 0.000470002,
    "FlipAngle": 76,
    "ImageOrientationPatientDICOM": [
      0.999987,
      0.000730374,
      0.00513201,
      2.94115e-08,
      0.990023,
      -0.140903
    ],
    "ImageType": [
      "ORIGINAL",
      "PRIMARY",
      "M",
      "ND",
      "MOSAIC"
    ],
    "ImagingFrequency": 123.218,
    "InPlanePhaseEncodingDirectionDICOM": "COL",
    "InstitutionAddress": "Univeristy_Ave._197_Newark_North_East_US_07102-1814",
    "InstitutionName": "RUBIC",
    "InstitutionalDepartmentName": "Department",
    "MRAcquisitionType": "2D",
    "MagneticFieldStrength": 3,
    "Manufacturer": "Siemens",
    "ManufacturersModelName": "TrioTim",
    "Modality": "MR",
    "PartialFourier": 1,
    "PatientPosition": "HFS",
    "PercentPhaseFOV": 100,
    "PhaseEncodingDirection": "j-",
    "PhaseEncodingSteps": 68,
    "PhaseResolution": 1,
    "PixelBandwidth": 2451,
    "ProcedureStepDescription": "Krekelberg_David",
    "ProtocolName": "ep2d_bold_RestEPI_2",
    "PulseSequenceDetails": "%SiemensSeq%_ep2d_bold",
    "ReceiveCoilName": "HeadMatrix",
    "ReconMatrixPE": 68,
    "RepetitionTime": 2,
    "SAR": 0.168853,
    "ScanOptions": "FS",
    "ScanningSequence": "EP",
    "SequenceName": "_epfid2d1_68",
    "SequenceVariant": "SK",
    "SeriesDescription": "ep2d_bold_RestEPI_2",
    "SeriesNumber": 8,
    "ShimSetting": [
      1933,
      -628,
      -7617,
      720,
      27,
      286,
      -151,
      -113
    ],
    "SliceThickness": 2.5,
    "SliceTiming": [
      1.9525,
      1.895,
      1.84,
      1.785,
      1.7275,
      1.6725,
      1.6175,
      1.56,
      1.505,
      1.45,
      1.3925,
      1.3375,
      1.2825,
      1.2275,
      1.17,
      1.115,
      1.06,
      1.0025,
      0.9475,
      0.8925,
      0.835,
      0.78,
      0.725,
      0.6675,
      0.6125,
      0.5575,
      0.5025,
      0.445,
      0.39,
      0.335,
      0.2775,
      0.2225,
      0.1675,
      0.11,
      0.055,
      0
    ],
    "SoftwareVersions": "syngo_MR_B19",
    "SpacingBetweenSlices": 3,
    "StationName": "MRC35450",
    "TaskName": "rest",
    "TotalReadoutTime": 0.0314901,
    "TxRefAmp": 347.22,
    "dataset": "<unset>",
    "dcmmeta_affine": [
      [
        -2.999959707260132,
        8.823447927852612e-08,
        0.015551166608929634,
        101.74214172363281
      ],
      [
        -0.002191120758652687,
        2.9700701236724854,
        -0.42270368337631226,
        -72.23542022705078
      ],
      [
        0.01539603155106306,
        0.4227093756198883,
        2.9700303077697754,
        -52.21115493774414
      ],
      [
        0.0,
        0.0,
        0.0,
        1.0
      ]
    ],
    "dcmmeta_reorient_transform": [
      [
        0.0,
        -1.0,
        0.0,
        67.0
      ],
      [
        1.0,
        0.0,
        0.0,
        0.0
      ],
      [
        0.0,
        0.0,
        1.0,
        0.0
      ],
      [
        0.0,
        0.0,
        0.0,
        1.0
      ]
    ],
    "dcmmeta_shape": [
      68,
      68,
      36,
      240
    ],
    "dcmmeta_slice_dim": 2,
    "dcmmeta_version": 0.6,
    "global": {
      "const": {
        "AcquisitionMatrix": [
          68,
          0,
          0,
          68
        ],
        "AngioFlag": "N",
        "BitsAllocated": 16,
        "BitsStored": 12,
        "Columns": 408,
        "EchoNumbers": 1,
        "EchoTime": 23.0,
        "EchoTrainLength": 1,
        "FlipAngle": 76.0,
        "HighBit": 11,
        "ImageOrientationPatient": [
          0.99998656442071,
          0.0007303735784,
          0.00513201057084,
          2.9411492e-08,
          0.99002338804893,
          -0.1409031267081
        ],
        "ImagePositionPatient": [
          -611.73531127442,
          -632.04370232345,
          45.353641826024
        ],
        "ImageType": [
          "ORIGINAL",
          "PRIMARY",
          "M",
          "ND",
          "MOSAIC"
        ],
        "ImagedNucleus": "1H",
        "ImagingFrequency": 123.218487,
        "InPlanePhaseEncodingDirection": "COL",
        "MRAcquisitionType": "2D",
        "MagneticFieldStrength": 3.0,
        "Manufacturer": "SIEMENS",
        "ManufacturerModelName": "TrioTim",
        "Modality": "MR",
        "NumberOfAverages": 1.0,
        "NumberOfPhaseEncodingSteps": 68,
        "PercentPhaseFieldOfView": 100.0,
        "PercentSampling": 100.0,
        "PerformedProcedureStepStartTime": "101123.890000",
        "PhotometricInterpretation": "MONOCHROME2",
        "PixelBandwidth": 2451.0,
        "PixelRepresentation": 0,
        "PixelSpacing": [
          3.0,
          3.0
        ],
        "ProtocolName": "ep2d_bold_RestEPI_2",
        "RepetitionTime": 2000.0,
        "Rows": 408,
        "SAR": 0.16885295023355,
        "SamplesPerPixel": 1,
        "ScanOptions": "FS",
        "ScanningSequence": "EP",
        "SequenceName": "*epfid2d1_68",
        "SequenceVariant": "SK",
        "SeriesDescription": "ep2d_bold_RestEPI_2",
        "SeriesNumber": 8,
        "SeriesTime": "111215.031000",
        "SliceLocation": -40.984108526347,
        "SliceThickness": 2.5,
        "SmallestImagePixelValue": 0,
        "SoftwareVersions": "syngo MR B19",
        "SpacingBetweenSlices": 2.9999999555374,
        "SpecificCharacterSet": "ISO_IR 100",
        "StudyID": "1",
        "StudyTime": "101123.796000",
        "TransmitCoilName": "Body",
        "VariableFlipAngleFlag": "N",
        "WindowCenterWidthExplanation": "Algo1",
        "dBdt": 0.0
      },
      "slices": {}
    },
    "modality": "bold",
    "run_id": 2,
    "subject_id": "237",
    "task_id": "rest",
    "time": {
      "samples": {
        "AcquisitionNumber": [
          1,
          2,
          3,
          4,
          5,
          6,
          7,
          8,
          9,
          10,
          11,
          12,
          13,
          14,
          15,
          16,
          17,
          18,
          19,
          20,
          21,
          22,
          23,
          24,
          25,
          26,
          27,
          28,
          29,
          30,
          31,
          32,
          33,
          34,
          35,
          36,
          37,
          38,
          39,
          40,
          41,
          42,
          43,
          44,
          45,
          46,
          47,
          48,
          49,
          50,
          51,
          52,
          53,
          54,
          55,
          56,
          57,
          58,
          59,
          60,
          61,
          62,
          63,
          64,
          65,
          66,
          67,
          68,
          69,
          70,
          71,
          72,
          73,
          74,
          75,
          76,
          77,
          78,
          79,
          80,
          81,
          82,
          83,
          84,
          85,
          86,
          87,
          88,
          89,
          90,
          91,
          92,
          93,
          94,
          95,
          96,
          97,
          98,
          99,
          100,
          101,
          102,
          103,
          104,
          105,
          106,
          107,
          108,
          109,
          110,
          111,
          112,
          113,
          114,
          115,
          116,
          117,
          118,
          119,
          120,
          121,
          122,
          123,
          124,
          125,
          126,
          127,
          128,
          129,
          130,
          131,
          132,
          133,
          134,
          135,
          136,
          137,
          138,
          139,
          140,
          141,
          142,
          143,
          144,
          145,
          146,
          147,
          148,
          149,
          150,
          151,
          152,
          153,
          154,
          155,
          156,
          157,
          158,
          159,
          160,
          161,
          162,
          163,
          164,
          165,
          166,
          167,
          168,
          169,
          170,
          171,
          172,
          173,
          174,
          175,
          176,
          177,
          178,
          179,
          180,
          181,
          182,
          183,
          184,
          185,
          186,
          187,
          188,
          189,
          190,
          191,
          192,
          193,
          194,
          195,
          196,
          197,
          198,
          199,
          200,
          201,
          202,
          203,
          204,
          205,
          206,
          207,
          208,
          209,
          210,
          211,
          212,
          213,
          214,
          215,
          216,
          217,
          218,
          219,
          220,
          221,
          222,
          223,
          224,
          225,
          226,
          227,
          228,
          229,
          230,
          231,
          232,
          233,
          234,
          235,
          236,
          237,
          238,
          239,
          240
        ],
        "AcquisitionTime": [
          "111131.880000",
          "111133.887500",
          "111135.895000",
          "111137.902500",
          "111139.910000",
          "111141.920000",
          "111143.927500",
          "111145.935000",
          "111147.942500",
          "111149.950000",
          "111151.960000",
          "111153.967500",
          "111155.975000",
          "111157.982500",
          "111159.990000",
          "111202.000000",
          "111204.007500",
          "111206.015000",
          "111208.022500",
          "111210.032500",
          "111212.040000",
          "111214.047500",
          "111216.055000",
          "111218.062500",
          "111220.072500",
          "111222.080000",
          "111224.087500",
          "111226.095000",
          "111228.102500",
          "111230.112500",
          "111232.120000",
          "111234.127500",
          "111236.135000",
          "111238.145000",
          "111240.152500",
          "111242.160000",
          "111244.167500",
          "111246.175000",
          "111248.185000",
          "111250.192500",
          "111252.200000",
          "111254.207500",
          "111256.215000",
          "111258.225000",
          "111300.232500",
          "111302.240000",
          "111304.247500",
          "111306.257500",
          "111308.265000",
          "111310.272500",
          "111312.280000",
          "111314.287500",
          "111316.297500",
          "111318.305000",
          "111320.312500",
          "111322.320000",
          "111324.327500",
          "111326.337500",
          "111328.345000",
          "111330.352500",
          "111332.360000",
          "111334.370000",
          "111336.377500",
          "111338.385000",
          "111340.392500",
          "111342.400000",
          "111344.410000",
          "111346.417500",
          "111348.425000",
          "111350.432500",
          "111352.440000",
          "111354.450000",
          "111356.457500",
          "111358.465000",
          "111400.472500",
          "111402.480000",
          "111404.490000",
          "111406.497500",
          "111408.505000",
          "111410.512500",
          "111412.522500",
          "111414.530000",
          "111416.537500",
          "111418.545000",
          "111420.552500",
          "111422.562500",
          "111424.570000",
          "111426.577500",
          "111428.585000",
          "111430.592500",
          "111432.602500",
          "111434.610000",
          "111436.617500",
          "111438.625000",
          "111440.635000",
          "111442.642500",
          "111444.650000",
          "111446.657500",
          "111448.665000",
          "111450.675000",
          "111452.682500",
          "111454.690000",
          "111456.697500",
          "111458.705000",
          "111500.715000",
          "111502.722500",
          "111504.730000",
          "111506.737500",
          "111508.747500",
          "111510.755000",
          "111512.762500",
          "111514.770000",
          "111516.777500",
          "111518.787500",
          "111520.795000",
          "111522.802500",
          "111524.810000",
          "111526.817500",
          "111528.827500",
          "111530.835000",
          "111532.842500",
          "111534.850000",
          "111536.857500",
          "111538.867500",
          "111540.875000",
          "111542.882500",
          "111544.890000",
          "111546.900000",
          "111548.907500",
          "111550.915000",
          "111552.922500",
          "111554.930000",
          "111556.940000",
          "111558.947500",
          "111600.955000",
          "111602.962500",
          "111604.970000",
          "111606.980000",
          "111608.987500",
          "111610.995000",
          "111613.002500",
          "111615.012500",
          "111617.020000",
          "111619.027500",
          "111621.035000",
          "111623.042500",
          "111625.052500",
          "111627.060000",
          "111629.067500",
          "111631.075000",
          "111633.082500",
          "111635.092500",
          "111637.100000",
          "111639.107500",
          "111641.115000",
          "111643.125000",
          "111645.132500",
          "111647.140000",
          "111649.147500",
          "111651.155000",
          "111653.165000",
          "111655.172500",
          "111657.180000",
          "111659.187500",
          "111701.195000",
          "111703.205000",
          "111705.212500",
          "111707.220000",
          "111709.227500",
          "111711.235000",
          "111713.245000",
          "111715.252500",
          "111717.260000",
          "111719.267500",
          "111721.277500",
          "111723.285000",
          "111725.292500",
          "111727.300000",
          "111729.307500",
          "111731.317500",
          "111733.325000",
          "111735.332500",
          "111737.340000",
          "111739.347500",
          "111741.357500",
          "111743.365000",
          "111745.372500",
          "111747.380000",
          "111749.390000",
          "111751.397500",
          "111753.405000",
          "111755.412500",
          "111757.420000",
          "111759.430000",
          "111801.437500",
          "111803.445000",
          "111805.452500",
          "111807.460000",
          "111809.470000",
          "111811.477500",
          "111813.485000",
          "111815.492500",
          "111817.502500",
          "111819.510000",
          "111821.517500",
          "111823.525000",
          "111825.532500",
          "111827.542500",
          "111829.550000",
          "111831.557500",
          "111833.565000",
          "111835.572500",
          "111837.582500",
          "111839.590000",
          "111841.597500",
          "111843.605000",
          "111845.612500",
          "111847.622500",
          "111849.630000",
          "111851.637500",
          "111853.645000",
          "111855.655000",
          "111857.662500",
          "111859.670000",
          "111901.677500",
          "111903.685000",
          "111905.695000",
          "111907.702500",
          "111909.710000",
          "111911.717500",
          "111913.725000",
          "111915.735000",
          "111917.742500",
          "111919.750000",
          "111921.757500",
          "111923.767500",
          "111925.775000",
          "111927.782500",
          "111929.790000",
          "111931.797500"
        ],
        "ContentTime": [
          "111215.031000",
          "111215.046000",
          "111215.046000",
          "111215.046000",
          "111215.046000",
          "111215.046000",
          "111215.046000",
          "111215.046000",
          "111215.046000",
          "111215.062000",
          "111215.062000",
          "111215.062000",
          "111215.062000",
          "111215.062000",
          "111215.062000",
          "111215.062000",
          "111215.062000",
          "111215.078000",
          "111215.078000",
          "111215.078000",
          "111215.078000",
          "111255.031000",
          "111255.031000",
          "111255.031000",
          "111255.031000",
          "111255.046000",
          "111255.046000",
          "111255.046000",
          "111255.046000",
          "111255.046000",
          "111255.046000",
          "111255.046000",
          "111255.062000",
          "111255.062000",
          "111255.062000",
          "111255.062000",
          "111255.062000",
          "111255.062000",
          "111255.062000",
          "111255.062000",
          "111255.078000",
          "111335.031000",
          "111335.031000",
          "111335.031000",
          "111335.031000",
          "111335.046000",
          "111335.046000",
          "111335.046000",
          "111335.046000",
          "111335.046000",
          "111335.046000",
          "111335.046000",
          "111335.062000",
          "111335.062000",
          "111335.062000",
          "111335.062000",
          "111335.062000",
          "111335.062000",
          "111335.062000",
          "111335.062000",
          "111335.078000",
          "111415.031000",
          "111415.031000",
          "111415.031000",
          "111415.031000",
          "111415.046000",
          "111415.046000",
          "111415.046000",
          "111415.046000",
          "111415.046000",
          "111415.046000",
          "111415.046000",
          "111415.062000",
          "111415.062000",
          "111415.062000",
          "111415.062000",
          "111415.062000",
          "111415.062000",
          "111415.062000",
          "111415.062000",
          "111415.078000",
          "111455.031000",
          "111455.031000",
          "111455.031000",
          "111455.046000",
          "111455.046000",
          "111455.046000",
          "111455.046000",
          "111455.046000",
          "111455.046000",
          "111455.046000",
          "111455.046000",
          "111455.062000",
          "111455.062000",
          "111455.062000",
          "111455.062000",
          "111455.062000",
          "111455.062000",
          "111455.062000",
          "111455.078000",
          "111455.078000",
          "111535.031000",
          "111535.031000",
          "111535.031000",
          "111535.046000",
          "111535.046000",
          "111535.046000",
          "111535.046000",
          "111535.046000",
          "111535.046000",
          "111535.046000",
          "111535.046000",
          "111535.062000",
          "111535.062000",
          "111535.062000",
          "111535.062000",
          "111535.062000",
          "111535.062000",
          "111535.062000",
          "111535.078000",
          "111535.078000",
          "111615.031000",
          "111615.031000",
          "111615.031000",
          "111615.031000",
          "111615.046000",
          "111615.046000",
          "111615.046000",
          "111615.046000",
          "111615.046000",
          "111615.046000",
          "111615.046000",
          "111615.062000",
          "111615.062000",
          "111615.062000",
          "111615.062000",
          "111615.062000",
          "111615.062000",
          "111615.062000",
          "111615.078000",
          "111615.078000",
          "111655.031000",
          "111655.031000",
          "111655.031000",
          "111655.031000",
          "111655.046000",
          "111655.046000",
          "111655.046000",
          "111655.046000",
          "111655.046000",
          "111655.046000",
          "111655.046000",
          "111655.062000",
          "111655.062000",
          "111655.062000",
          "111655.062000",
          "111655.062000",
          "111655.062000",
          "111655.062000",
          "111655.062000",
          "111655.078000",
          "111735.031000",
          "111735.031000",
          "111735.031000",
          "111735.046000",
          "111735.046000",
          "111735.046000",
          "111735.046000",
          "111735.046000",
          "111735.046000",
          "111735.046000",
          "111735.046000",
          "111735.062000",
          "111735.062000",
          "111735.062000",
          "111735.062000",
          "111735.062000",
          "111735.062000",
          "111735.062000",
          "111735.062000",
          "111735.078000",
          "111815.031000",
          "111815.031000",
          "111815.031000",
          "111815.031000",
          "111815.046000",
          "111815.046000",
          "111815.046000",
          "111815.046000",
          "111815.046000",
          "111815.046000",
          "111815.046000",
          "111815.062000",
          "111815.062000",
          "111815.062000",
          "111815.062000",
          "111815.062000",
          "111815.062000",
          "111815.062000",
          "111815.062000",
          "111815.078000",
          "111855.031000",
          "111855.031000",
          "111855.031000",
          "111855.046000",
          "111855.046000",
          "111855.046000",
          "111855.046000",
          "111855.046000",
          "111855.046000",
          "111855.046000",
          "111855.046000",
          "111855.062000",
          "111855.062000",
          "111855.062000",
          "111855.062000",
          "111855.062000",
          "111855.062000",
          "111855.062000",
          "111855.062000",
          "111855.078000",
          "111932.062000",
          "111932.062000",
          "111932.062000",
          "111932.062000",
          "111932.062000",
          "111932.062000",
          "111932.062000",
          "111932.062000",
          "111932.078000",
          "111932.078000",
          "111932.078000",
          "111932.078000",
          "111932.078000",
          "111932.078000",
          "111932.078000",
          "111932.093000",
          "111932.093000",
          "111932.093000",
          "111932.093000"
        ],
        "InstanceCreationTime": [
          "111215.031000",
          "111215.046000",
          "111215.046000",
          "111215.046000",
          "111215.046000",
          "111215.046000",
          "111215.046000",
          "111215.046000",
          "111215.046000",
          "111215.062000",
          "111215.062000",
          "111215.062000",
          "111215.062000",
          "111215.062000",
          "111215.062000",
          "111215.062000",
          "111215.062000",
          "111215.078000",
          "111215.078000",
          "111215.078000",
          "111215.078000",
          "111255.031000",
          "111255.031000",
          "111255.031000",
          "111255.031000",
          "111255.046000",
          "111255.046000",
          "111255.046000",
          "111255.046000",
          "111255.046000",
          "111255.046000",
          "111255.046000",
          "111255.062000",
          "111255.062000",
          "111255.062000",
          "111255.062000",
          "111255.062000",
          "111255.062000",
          "111255.062000",
          "111255.062000",
          "111255.078000",
          "111335.031000",
          "111335.031000",
          "111335.031000",
          "111335.031000",
          "111335.046000",
          "111335.046000",
          "111335.046000",
          "111335.046000",
          "111335.046000",
          "111335.046000",
          "111335.046000",
          "111335.062000",
          "111335.062000",
          "111335.062000",
          "111335.062000",
          "111335.062000",
          "111335.062000",
          "111335.062000",
          "111335.062000",
          "111335.078000",
          "111415.031000",
          "111415.031000",
          "111415.031000",
          "111415.031000",
          "111415.046000",
          "111415.046000",
          "111415.046000",
          "111415.046000",
          "111415.046000",
          "111415.046000",
          "111415.046000",
          "111415.062000",
          "111415.062000",
          "111415.062000",
          "111415.062000",
          "111415.062000",
          "111415.062000",
          "111415.062000",
          "111415.062000",
          "111415.078000",
          "111455.031000",
          "111455.031000",
          "111455.031000",
          "111455.046000",
          "111455.046000",
          "111455.046000",
          "111455.046000",
          "111455.046000",
          "111455.046000",
          "111455.046000",
          "111455.046000",
          "111455.062000",
          "111455.062000",
          "111455.062000",
          "111455.062000",
          "111455.062000",
          "111455.062000",
          "111455.062000",
          "111455.078000",
          "111455.078000",
          "111535.031000",
          "111535.031000",
          "111535.031000",
          "111535.046000",
          "111535.046000",
          "111535.046000",
          "111535.046000",
          "111535.046000",
          "111535.046000",
          "111535.046000",
          "111535.046000",
          "111535.062000",
          "111535.062000",
          "111535.062000",
          "111535.062000",
          "111535.062000",
          "111535.062000",
          "111535.062000",
          "111535.078000",
          "111535.078000",
          "111615.031000",
          "111615.031000",
          "111615.031000",
          "111615.031000",
          "111615.046000",
          "111615.046000",
          "111615.046000",
          "111615.046000",
          "111615.046000",
          "111615.046000",
          "111615.046000",
          "111615.062000",
          "111615.062000",
          "111615.062000",
          "111615.062000",
          "111615.062000",
          "111615.062000",
          "111615.062000",
          "111615.078000",
          "111615.078000",
          "111655.031000",
          "111655.031000",
          "111655.031000",
          "111655.031000",
          "111655.046000",
          "111655.046000",
          "111655.046000",
          "111655.046000",
          "111655.046000",
          "111655.046000",
          "111655.046000",
          "111655.062000",
          "111655.062000",
          "111655.062000",
          "111655.062000",
          "111655.062000",
          "111655.062000",
          "111655.062000",
          "111655.062000",
          "111655.078000",
          "111735.031000",
          "111735.031000",
          "111735.031000",
          "111735.046000",
          "111735.046000",
          "111735.046000",
          "111735.046000",
          "111735.046000",
          "111735.046000",
          "111735.046000",
          "111735.046000",
          "111735.062000",
          "111735.062000",
          "111735.062000",
          "111735.062000",
          "111735.062000",
          "111735.062000",
          "111735.062000",
          "111735.062000",
          "111735.078000",
          "111815.031000",
          "111815.031000",
          "111815.031000",
          "111815.031000",
          "111815.046000",
          "111815.046000",
          "111815.046000",
          "111815.046000",
          "111815.046000",
          "111815.046000",
          "111815.046000",
          "111815.062000",
          "111815.062000",
          "111815.062000",
          "111815.062000",
          "111815.062000",
          "111815.062000",
          "111815.062000",
          "111815.062000",
          "111815.078000",
          "111855.031000",
          "111855.031000",
          "111855.031000",
          "111855.046000",
          "111855.046000",
          "111855.046000",
          "111855.046000",
          "111855.046000",
          "111855.046000",
          "111855.046000",
          "111855.046000",
          "111855.062000",
          "111855.062000",
          "111855.062000",
          "111855.062000",
          "111855.062000",
          "111855.062000",
          "111855.062000",
          "111855.062000",
          "111855.078000",
          "111932.062000",
          "111932.062000",
          "111932.062000",
          "111932.062000",
          "111932.062000",
          "111932.062000",
          "111932.062000",
          "111932.062000",
          "111932.078000",
          "111932.078000",
          "111932.078000",
          "111932.078000",
          "111932.078000",
          "111932.078000",
          "111932.078000",
          "111932.093000",
          "111932.093000",
          "111932.093000",
          "111932.093000"
        ],
        "InstanceNumber": [
          1,
          2,
          3,
          4,
          5,
          6,
          7,
          8,
          9,
          10,
          11,
          12,
          13,
          14,
          15,
          16,
          17,
          18,
          19,
          20,
          21,
          22,
          23,
          24,
          25,
          26,
          27,
          28,
          29,
          30,
          31,
          32,
          33,
          34,
          35,
          36,
          37,
          38,
          39,
          40,
          41,
          42,
          43,
          44,
          45,
          46,
