{
    "AcquisitionMatrixPE": 68, 
    "AcquisitionNumber": 1, 
    "AcquisitionTime": "11:53:57.092500", 
    "BaseResolution": 68, 
    "CoilString": "C:HEA;HEP", 
    "ConversionSoftware": "dcm2niix", 
    "ConversionSoftwareVersion": "v1.0.20190902", 
    "DeviceSerialNumber": "35450", 
    "DwellTime": 2.82e-05, 
    "EchoNumber": 2, 
    "EchoTime": 0.00765, 
    "EchoTime1": 0.00519, 
    "EchoTime2": 0.00765, 
    "FlipAngle": 60, 
    "ImageOrientationPatientDICOM": [
        0.999816, 
        0.00103812, 
        0.0191694, 
        5.21597e-08, 
        0.998537, 
        -0.0540788
    ], 
    "ImageType": [
        "ORIGINAL", 
        "PRIMARY", 
        "P", 
        "ND"
    ], 
    "ImagingFrequency": 123.219, 
    "InPlanePhaseEncodingDirectionDICOM": "COL", 
    "InstitutionAddress": "Univeristy_Ave._197_Newark_North_East_US_07102-1814", 
    "InstitutionName": "RUBIC", 
    "InstitutionalDepartmentName": "Department", 
    "IntendedFor": [
        "func/sub-238_task-rest_run-01_bold.nii.gz", 
        "func/sub-238_task-rest_run-03_bold.nii.gz", 
        "func/sub-238_task-cardgame_run-02_bold.nii.gz", 
        "func/sub-238_task-cardgame_run-01_bold.nii.gz", 
        "func/sub-238_task-rest_run-02_bold.nii.gz", 
        "func/sub-238_task-cardgame_run-03_bold.nii.gz", 
        "func/sub-238_task-rest_run-04_bold.nii.gz"
    ], 
    "MRAcquisitionType": "2D", 
    "MagneticFieldStrength": 3, 
    "Manufacturer": "Siemens", 
    "ManufacturersModelName": "TrioTim", 
    "Modality": "MR", 
    "PartialFourier": 1, 
    "PatientPosition": "HFS", 
    "PercentPhaseFOV": 100, 
    "PhaseEncodingDirection": "j-", 
    "PhaseEncodingSteps": 68, 
    "PhaseResolution": 1, 
    "PixelBandwidth": 261, 
    "ProcedureStepDescription": "Krekelberg_David", 
    "ProtocolName": "gre_field_mapping", 
    "PulseSequenceDetails": "%SiemensSeq%_gre_field_mapping", 
    "ReceiveCoilName": "HeadMatrix", 
    "ReconMatrixPE": 68, 
    "RepetitionTime": 0.402, 
    "SAR": 0.256777, 
    "ScanningSequence": "GR", 
    "SequenceName": "_fm2d2r", 
    "SequenceVariant": "SP", 
    "SeriesDescription": "gre_field_mapping", 
    "SeriesNumber": 5, 
    "ShimSetting": [
        2008, 
        -516, 
        -7874, 
        641, 
        420, 
        761, 
        -177, 
        -18
    ], 
    "SliceThickness": 2.5, 
    "SliceTiming": [
        0.20312, 
        0, 
        0.21094, 
        0.01562, 
        0.22656, 
        0.02344, 
        0.23438, 
        0.03125, 
        0.25, 
        0.04688, 
        0.25781, 
        0.05469, 
        0.26562, 
        0.07031, 
        0.28125, 
        0.07812, 
        0.28906, 
        0.09375, 
        0.30469, 
        0.10156, 
        0.3125, 
        0.11719, 
        0.32812, 
        0.125, 
        0.33594, 
        0.13281, 
        0.35156, 
        0.14844, 
        0.35938, 
        0.15625, 
        0.375, 
        0.17188, 
        0.38281, 
        0.17969, 
        0.39062, 
        0.19531
    ], 
    "SoftwareVersions": "syngo_MR_B19", 
    "SpacingBetweenSlices": 3, 
    "StationName": "MRC35450", 
    "TxRefAmp": 349.196, 
    "dcmmeta_affine": [
        [
            -2.9994471073150635, 
            1.564792029284945e-07, 
            0.05759239196777344, 
            101.65129852294922
        ], 
        [
            -0.0031143680680543184, 
            2.995609998703003, 
            -0.16220664978027344, 
            -80.99466705322266
        ], 
        [
            0.05750805139541626, 
            0.16223643720149994, 
            2.9950637817382812, 
            -29.214296340942383
        ], 
        [
            0.0, 
            0.0, 
            0.0, 
            1.0
        ]
    ], 
    "dcmmeta_reorient_transform": [
        [
            0.0, 
            -1.0, 
            0.0, 
            67.0
        ], 
        [
            1.0, 
            0.0, 
            0.0, 
            0.0
        ], 
        [
            0.0, 
            0.0, 
            -1.0, 
            35.0
        ], 
        [
            0.0, 
            0.0, 
            0.0, 
            1.0
        ]
    ], 
    "dcmmeta_shape": [
        68, 
        68, 
        36
    ], 
    "dcmmeta_slice_dim": 2, 
    "dcmmeta_version": 0.6, 
    "global": {
        "const": {
            "AcquisitionMatrix": [
                68, 
                0, 
                0, 
                68
            ], 
            "AcquisitionNumber": 1, 
            "AngioFlag": "N", 
            "BitsAllocated": 16, 
            "BitsStored": 12, 
            "Columns": 68, 
            "EchoNumbers": 2, 
            "EchoTime": 7.65, 
            "EchoTrainLength": 1, 
            "FlipAngle": 60.0, 
            "HighBit": 11, 
            "ImageOrientationPatient": [
                0.9998157121633, 
                0.00103812269699, 
                0.01916935086707, 
                5.2159735e-08, 
                0.99853667035216, 
                -0.0540788125056
            ], 
            "ImageType": [
                "ORIGINAL", 
                "PRIMARY", 
                "P", 
                "ND"
            ], 
            "ImagedNucleus": "1H", 
            "ImagingFrequency": 123.218631, 
            "InPlanePhaseEncodingDirection": "COL", 
            "MRAcquisitionType": "2D", 
            "MagneticFieldStrength": 3.0, 
            "Manufacturer": "SIEMENS", 
            "ManufacturerModelName": "TrioTim", 
            "Modality": "MR", 
            "NumberOfAverages": 1.0, 
            "NumberOfPhaseEncodingSteps": 68, 
            "PercentPhaseFieldOfView": 100.0, 
            "PercentSampling": 100.0, 
            "PerformedProcedureStepStartTime": "113416.406000", 
            "PhotometricInterpretation": "MONOCHROME2", 
            "PixelBandwidth": 261.0, 
            "PixelRepresentation": 0, 
            "PixelSpacing": [
                3.0, 
                3.0
            ], 
            "ProtocolName": "gre_field_mapping", 
            "RepetitionTime": 402.0, 
            "RescaleIntercept": -4096.0, 
            "RescaleSlope": 2.0, 
            "RescaleType": "US", 
            "Rows": 68, 
            "SAR": 0.25677716221713, 
            "SamplesPerPixel": 1, 
            "ScanningSequence": "GR", 
            "SequenceName": "*fm2d2r", 
            "SequenceVariant": "SP", 
            "SeriesDescription": "gre_field_mapping", 
            "SeriesNumber": 5, 
            "SeriesTime": "115458.593000", 
            "SliceThickness": 2.5, 
            "SoftwareVersions": "syngo MR B19", 
            "SpacingBetweenSlices": 3.0, 
            "SpecificCharacterSet": "ISO_IR 100", 
            "StudyID": "1", 
            "StudyTime": "113416.359000", 
            "TransmitCoilName": "Body", 
            "VariableFlipAngleFlag": "N", 
            "WindowCenterWidthExplanation": "Algo1", 
            "dBdt": 0.0
        }, 
        "slices": {
            "AcquisitionTime": [
                "115357.092500", 
                "115356.892500", 
                "115357.105000", 
                "115356.902500", 
                "115357.115000", 
                "115356.915000", 
                "115357.127500", 
                "115356.925000", 
                "115357.137500", 
                "115356.937500", 
                "115357.150000", 
                "115356.947500", 
                "115357.160000", 
                "115356.960000", 
                "115357.172500", 
                "115356.970000", 
                "115357.182500", 
                "115356.982500", 
                "115357.195000", 
                "115356.992500", 
                "115357.205000", 
                "115357.005000", 
                "115357.217500", 
                "115357.015000", 
                "115357.227500", 
                "115357.025000", 
                "115357.240000", 
                "115357.037500", 
                "115357.250000", 
                "115357.047500", 
                "115357.262500", 
                "115357.060000", 
                "115357.272500", 
                "115357.070000", 
                "115357.285000", 
                "115357.082500"
            ], 
            "ContentTime": [
                "115458.640000", 
                "115458.593000", 
                "115458.656000", 
                "115458.593000", 
                "115458.656000", 
                "115458.593000", 
                "115458.656000", 
                "115458.609000", 
                "115458.656000", 
                "115458.609000", 
                "115458.656000", 
                "115458.609000", 
                "115458.656000", 
                "115458.609000", 
                "115458.656000", 
                "115458.609000", 
                "115458.656000", 
                "115458.609000", 
                "115458.671000", 
                "115458.625000", 
                "115458.671000", 
                "115458.625000", 
                "115458.671000", 
                "115458.625000", 
                "115458.671000", 
                "115458.625000", 
                "115458.671000", 
                "115458.625000", 
                "115458.671000", 
                "115458.640000", 
                "115458.671000", 
                "115458.640000", 
                "115458.671000", 
                "115458.640000", 
                "115458.671000", 
                "115458.640000"
            ], 
            "CsaImage.ICE_Dims": [
                "X_2_1_1_1_1_1_19_1_1_1_1_62", 
                "X_2_1_1_1_1_1_1_1_1_2_1_62", 
                "X_2_1_1_1_1_1_20_1_1_3_1_62", 
                "X_2_1_1_1_1_1_2_1_1_4_1_62", 
                "X_2_1_1_1_1_1_21_1_1_5_1_62", 
                "X_2_1_1_1_1_1_3_1_1_6_1_62", 
                "X_2_1_1_1_1_1_22_1_1_7_1_62", 
                "X_2_1_1_1_1_1_4_1_1_8_1_62", 
                "X_2_1_1_1_1_1_23_1_1_9_1_62", 
                "X_2_1_1_1_1_1_5_1_1_10_1_62", 
                "X_2_1_1_1_1_1_24_1_1_11_1_62", 
                "X_2_1_1_1_1_1_6_1_1_12_1_62", 
                "X_2_1_1_1_1_1_25_1_1_13_1_62", 
                "X_2_1_1_1_1_1_7_1_1_14_1_62", 
                "X_2_1_1_1_1_1_26_1_1_15_1_62", 
                "X_2_1_1_1_1_1_8_1_1_16_1_62", 
                "X_2_1_1_1_1_1_27_1_1_17_1_62", 
                "X_2_1_1_1_1_1_9_1_1_18_1_62", 
                "X_2_1_1_1_1_1_28_1_1_19_1_62", 
                "X_2_1_1_1_1_1_10_1_1_20_1_62", 
                "X_2_1_1_1_1_1_29_1_1_21_1_62", 
                "X_2_1_1_1_1_1_11_1_1_22_1_62", 
                "X_2_1_1_1_1_1_30_1_1_23_1_62", 
                "X_2_1_1_1_1_1_12_1_1_24_1_62", 
                "X_2_1_1_1_1_1_31_1_1_25_1_62", 
                "X_2_1_1_1_1_1_13_1_1_26_1_62", 
                "X_2_1_1_1_1_1_32_1_1_27_1_62", 
                "X_2_1_1_1_1_1_14_1_1_28_1_62", 
                "X_2_1_1_1_1_1_33_1_1_29_1_62", 
                "X_2_1_1_1_1_1_15_1_1_30_1_62", 
                "X_2_1_1_1_1_1_34_1_1_31_1_62", 
                "X_2_1_1_1_1_1_16_1_1_32_1_62", 
                "X_2_1_1_1_1_1_35_1_1_33_1_62", 
                "X_2_1_1_1_1_1_17_1_1_34_1_62", 
                "X_2_1_1_1_1_1_36_1_1_35_1_62", 
                "X_2_1_1_1_1_1_18_1_1_36_1_62"
            ], 
            "CsaImage.ProtocolSliceNumber": [
                0, 
                1, 
                2, 
                3, 
                4, 
                5, 
                6, 
                7, 
                8, 
                9, 
                10, 
                11, 
                12, 
                13, 
                14, 
                15, 
                16, 
                17, 
                18, 
                19, 
                20, 
                21, 
                22, 
                23, 
                24, 
                25, 
                26, 
                27, 
                28, 
                29, 
                30, 
                31, 
                32, 
                33, 
                34, 
                35
            ], 
            "CsaImage.SliceMeasurementDuration": [
                54085.0, 
                54082.5, 
                54085.0, 
                54085.0, 
                54085.0, 
                54082.5, 
                54085.0, 
                54085.0, 
                54085.0, 
                54082.5, 
                54085.0, 
                54085.0, 
                54085.0, 
                54082.5, 
                54082.5, 
                54085.0, 
                54085.0, 
                54082.5, 
                54082.5, 
                54085.0, 
                54085.0, 
                54082.5, 
                54082.5, 
                54085.0, 
                54085.0, 
                54085.0, 
                54082.5, 
                54085.0, 
                54085.0, 
                54085.0, 
                54082.5, 
                54085.0, 
                54085.0, 
                54085.0, 
                54082.5, 
                54085.0
            ], 
            "CsaImage.SlicePosition_PCS": [
                [
                    -101.65130835, 
                    -119.71120271, 
                    -18.34425467
                ], 
                [
                    -101.70890068, 
                    -119.54899606, 
                    -15.34919661
                ], 
                [
                    -101.76649302, 
                    -119.38678941, 
                    -12.35413855
                ], 
                [
                    -101.82408533, 
                    -119.22458276, 
                    -9.35908049
                ], 
                [
                    -101.88167767, 
                    -119.06237611, 
                    -6.36402243
                ], 
                [
                    -101.93926999, 
                    -118.90016946, 
                    -3.36896485
                ], 
                [
                    -101.99686232, 
                    -118.73796281, 
                    -0.37390703
                ], 
                [
                    -102.05445465, 
                    -118.57575616, 
                    2.62115103
                ], 
                [
                    -102.11204697, 
                    -118.41354951, 
                    5.61620885
                ], 
                [
                    -102.1696393, 
                    -118.25134287, 
                    8.61126691
                ], 
                [
                    -102.22723163, 
                    -118.08913622, 
                    11.60632497
                ], 
                [
                    -102.28482395, 
                    -117.92692957, 
                    14.60138303
                ], 
                [
                    -102.34241628, 
                    -117.76472387, 
                    17.59644109
                ], 
                [
                    -102.40000861, 
                    -117.60251722, 
                    20.5914982
                ], 
                [
                    -102.45760095, 
                    -117.44031057, 
                    23.58655626
                ], 
                [
                    -102.51519328, 
                    -117.27810392, 
                    26.58161432
                ], 
                [
                    -102.57278561, 
                    -117.11589727, 
                    29.57667237
                ], 
                [
                    -102.63037794, 
                    -116.95369062, 
                    32.57173043
                ], 
                [
                    -102.68797022, 
                    -116.79148397, 
                    35.56678849
                ], 
                [
                    -102.74556255, 
                    -116.62927732, 
                    38.56184465
                ], 
                [
                    -102.80315488, 
                    -116.46707162, 
                    41.55690461
                ], 
                [
                    -102.86074721, 
                    -116.30486497, 
                    44.55196077
                ], 
                [
                    -102.91833954, 
                    -116.14265833, 
                    47.54702073
                ], 
                [
                    -102.97593188, 
                    -115.98045168, 
                    50.54207689
                ], 
                [
                    -103.03352415, 
                    -115.81824503, 
                    53.53713685
                ], 
                [
                    -103.09111654, 
                    -115.65603838, 
                    56.532193
                ], 
                [
                    -103.14870881, 
                    -115.49383173, 
                    59.52725297
                ], 
                [
                    -103.20630121, 
                    -115.33162508, 
                    62.52230912
                ], 
                [
                    -103.26389348, 
                    -115.16941843, 
                    65.51736909
                ], 
                [
                    -103.32148587, 
                    -115.00721273, 
                    68.51242524
                ], 
                [
                    -103.37907814, 
                    -114.84500608, 
                    71.5074814
                ], 
                [
                    -103.43667054, 
                    -114.68279943, 
                    74.50254518
                ], 
                [
                    -103.49426281, 
                    -114.52059278, 
                    77.49760133
                ], 
                [
                    -103.5518552, 
                    -114.35838613, 
                    80.49265748
                ], 
                [
                    -103.60944747, 
                    -114.19617948, 
                    83.48771363
                ], 
                [
                    -103.66703987, 
                    -114.03397283, 
                    86.48277742
                ]
            ], 
            "CsaImage.TimeAfterStart": [
                0.6075, 
                0.405, 
                0.6175, 
                0.415, 
                0.63, 
                0.4275, 
                0.64, 
                0.4375, 
                0.6525, 
                0.45, 
                0.6625, 
                0.46, 
                0.675, 
                0.4725, 
                0.685, 
                0.4825, 
                0.6975, 
                0.495, 
                0.7075, 
                0.505, 
                0.7175, 
                0.5175, 
                0.73, 
                0.5275, 
                0.74, 
                0.54, 
                0.7525, 
                0.55, 
                0.7625, 
                0.5625, 
                0.775, 
                0.5725, 
                0.785, 
                0.585, 
                0.7975, 
                0.595
            ], 
            "ImagePositionPatient": [
                [
                    -101.65130835186, 
                    -119.71120271303, 
                    -18.344254673001
                ], 
                [
                    -101.70890068422, 
                    -119.54899606325, 
                    -15.349196613308
                ], 
                [
                    -101.76649301659, 
                    -119.38678941347, 
                    -12.354138553616
                ], 
                [
                    -101.82408533405, 
                    -119.22458276369, 
                    -9.3590804939236
                ], 
                [
                    -101.88167766641, 
                    -119.06237611391, 
                    -6.3640224342312
                ], 
                [
                    -101.93926999132, 
                    -118.90016946413, 
                    -3.368964851376
                ], 
                [
                    -101.9968623181, 
                    -118.73796281435, 
                    -0.3739070301022
                ], 
                [
                    -102.0544546486, 
                    -118.57575616457, 
                    2.6211510295902
                ], 
                [
                    -102.11204696606, 
                    -118.41354951479, 
                    5.616208850864
                ], 
                [
                    -102.16963929843, 
                    -118.25134286501, 
                    8.6112669105564
                ], 
                [
                    -102.22723163079, 
                    -118.08913621523, 
                    11.606324970249
                ], 
                [
                    -102.28482394825, 
                    -117.92692956545, 
                    14.601383029941
                ], 
                [
                    -102.34241628061, 
                    -117.76472386935, 
                    17.596441089634
                ], 
                [
                    -102.40000861298, 
                    -117.60251721957, 
                    20.591498195652
                ], 
                [
                    -102.45760094534, 
                    -117.44031056979, 
                    23.586556255344
                ], 
                [
                    -102.5151932777, 
                    -117.27810392001, 
                    26.581614315036
                ], 
                [
                    -102.57278561007, 
                    -117.11589727022, 
                    29.576672374729
                ], 
                [
                    -102.63037794243, 
                    -116.95369062044, 
                    32.571730434421
                ], 
                [
                    -102.68797021519, 
                    -116.79148397066, 
                    35.566788494114
                ], 
                [
                    -102.74556254755, 
                    -116.62927732088, 
                    38.561844646457
                ], 
                [
                    -102.80315487991, 
                    -116.46707162478, 
                    41.556904613498
                ], 
                [
                    -102.86074721228, 
                    -116.304864975, 
                    44.551960765842
                ], 
                [
                    -102.91833954464, 
                    -116.14265832522, 
                    47.547020732883
                ], 
                [
                    -102.975931877, 
                    -115.98045167544, 
                    50.542076885227
                ], 
                [
                    -103.03352414976, 
                    -115.81824502566, 
                    53.537136852268
                ], 
                [
                    -103.09111654173, 
                    -115.65603837588, 
                    56.532193004612
                ], 
                [
                    -103.14870881449, 
                    -115.4938317261, 
                    59.527252971653
                ], 
                [
                    -103.20630120646, 
                    -115.33162507632, 
                    62.522309123996
                ], 
                [
                    -103.26389347921, 
                    -115.16941842654, 
                    65.517369091037
                ], 
                [
                    -103.32148587118, 
                    -115.00721273043, 
                    68.512425243381
                ], 
                [
                    -103.37907814394, 
                    -114.84500608065, 
                    71.507481395725
                ], 
                [
                    -103.43667053591, 
                    -114.68279943087, 
                    74.502545177463
                ], 
                [
                    -103.49426280867, 
                    -114.52059278109, 
                    77.497601329807
                ], 
                [
                    -103.55185520063, 
                    -114.35838613131, 
                    80.492657482151
                ], 
                [
                    -103.60944747339, 
                    -114.19617948153, 
                    83.487713634494
                ], 
                [
                    -103.66703986536, 
                    -114.03397283175, 
                    86.482777416233
                ]
            ], 
            "InstanceCreationTime": [
                "115458.640000", 
                "115458.593000", 
                "115458.656000", 
                "115458.593000", 
                "115458.656000", 
                "115458.593000", 
                "115458.656000", 
                "115458.609000", 
                "115458.656000", 
                "115458.609000", 
                "115458.656000", 
                "115458.609000", 
                "115458.656000", 
                "115458.609000", 
                "115458.656000", 
                "115458.609000", 
                "115458.656000", 
                "115458.609000", 
                "115458.671000", 
                "115458.625000", 
                "115458.671000", 
                "115458.625000", 
                "115458.671000", 
                "115458.625000", 
                "115458.671000", 
                "115458.625000", 
                "115458.671000", 
                "115458.625000", 
                "115458.671000", 
                "115458.640000", 
                "115458.671000", 
                "115458.640000", 
                "115458.671000", 
                "115458.640000", 
                "115458.671000", 
                "115458.640000"
            ], 
            "InstanceNumber": [
                1, 
                2, 
                3, 
                4, 
                5, 
                6, 
                7, 
                8, 
                9, 
                10, 
                11, 
                12, 
                13, 
                14, 
                15, 
                16, 
                17, 
                18, 
                19, 
                20, 
                21, 
                22, 
                23, 
                24, 
                25, 
                26, 
                27, 
                28, 
                29, 
                30, 
                31, 
                32, 
                33, 
                34, 
                35, 
                36
            ], 
            "LargestImagePixelValue": [
                4094, 
                4090, 
                4092, 
                4094, 
                4093, 
                4091, 
                4091, 
                4083, 
                4092, 
                4088, 
                4091, 
                4094, 
                4078, 
                4092, 
                4094, 
                4094, 
                4093, 
                4093, 
                4088, 
                4093, 
                4077, 
                4094, 
                4085, 
                4088, 
                4094, 
                4088, 
                4089, 
                4094, 
                4094, 
                4094, 
                4093, 
                4092, 
                4091, 
                4089, 
                4091, 
                4093
            ], 
            "SliceLocation": [
                -22.83523714394, 
                -19.835237034788, 
                -16.835236925637, 
                -13.835236816772, 
                -10.83523670762, 
                -7.8352370746637, 
                -4.8352372036454, 
                -1.8352370945298, 
                1.1647627763097, 
                4.1647628854611, 
                7.1647629946125, 
                10.164763103478, 
                13.164763161065, 
                16.164762318113, 
                19.164762427265, 
                22.164762536416, 
                25.164762645567, 
                28.164762754719, 
                31.164762862726, 
                34.164761067671, 
                37.164763029464, 
                40.164761234409, 
                43.164763247767, 
                46.164761452712, 
                49.164763464926, 
                52.164761671015, 
                55.164763683228, 
                58.164761889318, 
                61.164763901531, 
                64.164762056056, 
                67.164760259857, 
                70.164766082772, 
                73.164764286573, 
                76.164762492662, 
                79.164760696462, 
                82.164766519378
            ], 
            "SmallestImagePixelValue": [
                3, 
                4, 
                2, 
                3, 
                25, 
                0, 
                2, 
                4, 
                4, 
                2, 
                1, 
                7, 
                10, 
                1, 
                0, 
                1, 
                2, 
                6, 
                0, 
                5, 
                1, 
                0, 
                1, 
                3, 
                3, 
                10, 
                9, 
                0, 
                0, 
                0, 
                1, 
                1, 
                5, 
                2, 
                7, 
                1
            ], 
            "WindowCenter": [
                -214.0, 
                -254.0, 
                -352.0, 
                -300.0, 
                -432.0, 
                -416.0, 
                -356.0, 
                -294.0, 
                -266.0, 
                -250.0, 
