{
  "AcquisitionMatrixPE": 68,
  "AcquisitionNumber": 1,
  "AcquisitionTime": "12:11:50.542500",
  "BandwidthPerPixelPhaseEncode": 31.289,
  "BaseResolution": 68,
  "CoilString": "C:HEA;HEP",
  "ConversionSoftware": "dcm2niix",
  "ConversionSoftwareVersion": "v1.0.20190902",
  "DerivedVendorReportedEchoSpacing": 0.000470002,
  "DeviceSerialNumber": "35450",
  "DwellTime": 3e-06,
  "EchoTime": 0.023,
  "EffectiveEchoSpacing": 0.000470002,
  "FlipAngle": 76,
  "ImageOrientationPatientDICOM": [1, 0, 0, 0, 0.988228, -0.152986],
  "ImageType": [
    "ORIGINAL",
    "PRIMARY",
    "M",
    "ND",
    "MOSAIC"
],
  "ImagingFrequency": 123.218,
  "InPlanePhaseEncodingDirectionDICOM": "COL",
  "InstitutionAddress": "Univeristy_Ave._197_Newark_North_East_US_07102-1814",
  "InstitutionName": "RUBIC",
  "InstitutionalDepartmentName": "Department",
  "MRAcquisitionType": "2D",
  "MagneticFieldStrength": 3,
  "Manufacturer": "Siemens",
  "ManufacturersModelName": "TrioTim",
  "Modality": "MR",
  "PartialFourier": 1,
  "PatientPosition": "HFS",
  "PercentPhaseFOV": 100,
  "PhaseEncodingDirection": "j-",
  "PhaseEncodingSteps": 68,
  "PhaseResolution": 1,
  "PixelBandwidth": 2451,
  "ProcedureStepDescription": "Krekelberg_David",
  "ProtocolName": "ep2d_bold_RestEPI_3",
  "PulseSequenceDetails": "%SiemensSeq%_ep2d_bold",
  "ReceiveCoilName": "HeadMatrix",
  "ReconMatrixPE": 68,
  "RepetitionTime": 2,
  "SAR": 0.229907,
  "ScanOptions": "FS",
  "ScanningSequence": "EP",
  "SequenceName": "_epfid2d1_68",
  "SequenceVariant": "SK",
  "SeriesDescription": "ep2d_bold_RestEPI_3",
  "SeriesNumber": 9,
  "ShimSetting": [1963, -666, -7514, 631, 37, -44, -413, -11],
  "SliceThickness": 2.5,
  "SliceTiming": [1.9525, 1.895, 1.84, 1.785, 1.73, 1.6725, 1.6175, 1.5625, 1.505, 1.45, 1.395, 1.3375, 1.2825, 1.2275, 1.17, 1.115, 1.06, 1.005, 0.9475, 0.8925, 0.8375, 0.78, 0.725, 0.67, 0.6125, 0.5575, 0.5025, 0.4475, 0.39, 0.335, 0.28, 0.2225, 0.1675, 0.1125, 0.055, 0],
  "SoftwareVersions": "syngo_MR_B19",
  "SpacingBetweenSlices": 3,
  "StationName": "MRC35450",
  "TaskName": "rest",
  "TotalReadoutTime": 0.0314901,
  "TxRefAmp": 478.846,
  "dcmmeta_affine": [
    [-3.0, 0.0, 0.0, 102.0],
    [0.0, 2.9646852016448975, -0.4589575231075287, -65.39607238769531],
    [0.0, 0.4589575231075287, 2.9646852016448975, -51.43436813354492],
    [0.0, 0.0, 0.0, 1.0]
],
  "dcmmeta_reorient_transform": [
    [0.0, -1.0, 0.0, 67.0],
    [1.0, 0.0, 0.0, 0.0],
    [0.0, 0.0, 1.0, 0.0],
    [0.0, 0.0, 0.0, 1.0]
],
  "dcmmeta_shape": [68, 68, 36, 240],
  "dcmmeta_slice_dim": 2,
  "dcmmeta_version": 0.6,
  "global": {
    "const": {
      "AcquisitionMatrix": [68, 0, 0, 68],
      "AngioFlag": "N",
      "BitsAllocated": 16,
      "BitsStored": 12,
      "Columns": 408,
      "EchoNumbers": 1,
      "EchoTime": 23.0,
      "EchoTrainLength": 1,
      "FlipAngle": 76.0,
      "HighBit": 11,
      "ImageOrientationPatient": [1.0, 0.0, 0.0, 0.0, 0.9882283809914, -0.1529858392241],
      "ImagePositionPatient": [-612.0, -637.23430676439, 57.338564836851],
      "ImageType": [
        "ORIGINAL",
        "PRIMARY",
        "M",
        "ND",
        "MOSAIC"
],
      "ImagedNucleus": "1H",
      "ImagingFrequency": 123.218441,
      "InPlanePhaseEncodingDirection": "COL",
      "MRAcquisitionType": "2D",
      "MagneticFieldStrength": 3.0,
      "Manufacturer": "SIEMENS",
      "ManufacturerModelName": "TrioTim",
      "Modality": "MR",
      "NumberOfAverages": 1.0,
      "NumberOfPhaseEncodingSteps": 68,
      "PercentPhaseFieldOfView": 100.0,
      "PercentSampling": 100.0,
      "PerformedProcedureStepStartTime": "112056.812000",
      "PhotometricInterpretation": "MONOCHROME2",
      "PixelBandwidth": 2451.0,
      "PixelRepresentation": 0,
      "PixelSpacing": [3.0, 3.0],
      "ProtocolName": "ep2d_bold_RestEPI_3",
      "RepetitionTime": 2000.0,
      "Rows": 408,
      "SAR": 0.22990693333829,
      "SamplesPerPixel": 1,
      "ScanOptions": "FS",
      "ScanningSequence": "EP",
      "SequenceName": "*epfid2d1_68",
      "SequenceVariant": "SK",
      "SeriesDescription": "ep2d_bold_RestEPI_3",
      "SeriesNumber": 9,
      "SeriesTime": "121208.281000",
      "SliceLocation": -40.82422810566,
      "SliceThickness": 2.5,
      "SmallestImagePixelValue": 0,
      "SoftwareVersions": "syngo MR B19",
      "SpacingBetweenSlices": 3.0000000229381,
      "SpecificCharacterSet": "ISO_IR 100",
      "StudyID": "1",
      "StudyTime": "112056.703000",
      "TransmitCoilName": "Body",
      "VariableFlipAngleFlag": "N",
      "WindowCenterWidthExplanation": "Algo1",
      "dBdt": 0.0},
    "slices": {}
  },
  "time": {
    "samples": {
      "AcquisitionNumber": [1, 2, 3, 4, 5, 6, 7, 8, 9, 10, 11, 12, 13, 14, 15, 16, 17, 18, 19, 20, 21, 22, 23, 24, 25, 26, 27, 28, 29, 30, 31, 32, 33, 34, 35, 36, 37, 38, 39, 40, 41, 42, 43, 44, 45, 46, 47, 48, 49, 50, 51, 52, 53, 54, 55, 56, 57, 58, 59, 60, 61, 62, 63, 64, 65, 66, 67, 68, 69, 70, 71, 72, 73, 74, 75, 76, 77, 78, 79, 80, 81, 82, 83, 84, 85, 86, 87, 88, 89, 90, 91, 92, 93, 94, 95, 96, 97, 98, 99, 100, 101, 102, 103, 104, 105, 106, 107, 108, 109, 110, 111, 112, 113, 114, 115, 116, 117, 118, 119, 120, 121, 122, 123, 124, 125, 126, 127, 128, 129, 130, 131, 132, 133, 134, 135, 136, 137, 138, 139, 140, 141, 142, 143, 144, 145, 146, 147, 148, 149, 150, 151, 152, 153, 154, 155, 156, 157, 158, 159, 160, 161, 162, 163, 164, 165, 166, 167, 168, 169, 170, 171, 172, 173, 174, 175, 176, 177, 178, 179, 180, 181, 182, 183, 184, 185, 186, 187, 188, 189, 190, 191, 192, 193, 194, 195, 196, 197, 198, 199, 200, 201, 202, 203, 204, 205, 206, 207, 208, 209, 210, 211, 212, 213, 214, 215, 216, 217, 218, 219, 220, 221, 222, 223, 224, 225, 226, 227, 228, 229, 230, 231, 232, 233, 234, 235, 236, 237, 238, 239, 240],
      "AcquisitionTime": ["121150.542500", "121152.550000", "121154.557500", "121156.565000", "121158.575000", "121200.582500", "121202.590000", "121204.597500", "121206.605000", "121208.615000", "121210.622500", "121212.630000", "121214.637500", "121216.647500", "121218.655000", "121220.662500", "121222.670000", "121224.677500", "121226.687500", "121228.695000", "121230.702500", "121232.710000", "121234.717500", "121236.727500", "121238.735000", "121240.742500", "121242.750000", "121244.757500", "121246.767500", "121248.775000", "121250.782500", "121252.790000", "121254.800000", "121256.807500", "121258.815000", "121300.822500", "121302.830000", "121304.840000", "121306.847500", "121308.855000", "121310.862500", "121312.870000", "121314.880000", "121316.887500", "121318.895000", "121320.902500", "121322.912500", "121324.920000", "121326.927500", "121328.935000", "121330.942500", "121332.952500", "121334.960000", "121336.967500", "121338.975000", "121340.982500", "121342.992500", "121345.000000", "121347.007500", "121349.015000", "121351.025000", "121353.032500", "121355.040000", "121357.047500", "121359.055000", "121401.065000", "121403.072500", "121405.080000", "121407.087500", "121409.095000", "121411.105000", "121413.112500", "121415.120000", "121417.127500", "121419.135000", "121421.145000", "121423.152500", "121425.160000", "121427.167500", "121429.177500", "121431.185000", "121433.192500", "121435.200000", "121437.207500", "121439.217500", "121441.225000", "121443.232500", "121445.240000", "121447.247500", "121449.257500", "121451.265000", "121453.272500", "121455.280000", "121457.290000", "121459.297500", "121501.305000", "121503.312500", "121505.320000", "121507.330000", "121509.337500", "121511.345000", "121513.352500", "121515.360000", "121517.370000", "121519.377500", "121521.385000", "121523.392500", "121525.402500", "121527.410000", "121529.417500", "121531.425000", "121533.432500", "121535.442500", "121537.450000", "121539.457500", "121541.465000", "121543.472500", "121545.482500", "121547.490000", "121549.497500", "121551.505000", "121553.515000", "121555.522500", "121557.530000", "121559.537500", "121601.545000", "121603.555000", "121605.562500", "121607.570000", "121609.577500", "121611.585000", "121613.595000", "121615.602500", "121617.610000", "121619.617500", "121621.625000", "121623.635000", "121625.642500", "121627.650000", "121629.657500", "121631.667500", "121633.675000", "121635.682500", "121637.690000", "121639.697500", "121641.707500", "121643.715000", "121645.722500", "121647.730000", "121649.737500", "121651.747500", "121653.755000", "121655.762500", "121657.770000", "121659.780000", "121701.787500", "121703.795000", "121705.802500", "121707.810000", "121709.820000", "121711.827500", "121713.835000", "121715.842500", "121717.850000", "121719.860000", "121721.867500", "121723.875000", "121725.882500", "121727.892500", "121729.900000", "121731.907500", "121733.915000", "121735.922500", "121737.932500", "121739.940000", "121741.947500", "121743.955000", "121745.962500", "121747.972500", "121749.980000", "121751.987500", "121753.995000", "121756.002500", "121758.012500", "121800.020000", "121802.027500", "121804.035000", "121806.045000", "121808.052500", "121810.060000", "121812.067500", "121814.075000", "121816.085000", "121818.092500", "121820.100000", "121822.107500", "121824.115000", "121826.125000", "121828.132500", "121830.140000", "121832.147500", "121834.157500", "121836.165000", "121838.172500", "121840.180000", "121842.187500", "121844.197500", "121846.205000", "121848.212500", "121850.220000", "121852.227500", "121854.237500", "121856.245000", "121858.252500", "121900.260000", "121902.270000", "121904.277500", "121906.285000", "121908.292500", "121910.300000", "121912.310000", "121914.317500", "121916.325000", "121918.332500", "121920.340000", "121922.350000", "121924.357500", "121926.365000", "121928.372500", "121930.380000", "121932.390000", "121934.397500", "121936.405000", "121938.412500", "121940.422500", "121942.430000", "121944.437500", "121946.445000", "121948.452500", "121950.462500"],
      "ContentTime": ["121208.296000", "121208.296000", "121208.296000", "121208.296000", "121208.296000", "121208.296000", "121208.296000", "121208.312000", "121248.281000", "121248.281000", "121248.296000", "121248.296000", "121248.296000", "121248.296000", "121248.296000", "121248.296000", "121248.296000", "121248.312000", "121248.312000", "121248.312000", "121248.312000", "121248.312000", "121248.312000", "121248.312000", "121248.312000", "121248.328000", "121248.328000", "121248.328000", "121328.281000", "121328.281000", "121328.296000", "121328.296000", "121328.296000", "121328.296000", "121328.296000", "121328.296000", "121328.296000", "121328.312000", "121328.312000", "121328.312000", "121328.312000", "121328.312000", "121328.312000", "121328.328000", "121328.328000", "121328.328000", "121328.328000", "121328.328000", "121408.281000", "121408.281000", "121408.296000", "121408.296000", "121408.296000", "121408.296000", "121408.296000", "121408.296000", "121408.296000", "121408.312000", "121408.312000", "121408.312000", "121408.312000", "121408.312000", "121408.312000", "121408.312000", "121408.328000", "121408.328000", "121408.328000", "121408.328000", "121448.281000", "121448.281000", "121448.296000", "121448.296000", "121448.296000", "121448.296000", "121448.296000", "121448.312000", "121448.312000", "121448.312000", "121448.312000", "121448.312000", "121448.312000", "121448.328000", "121448.328000", "121448.328000", "121448.328000", "121448.328000", "121448.343000", "121448.343000", "121528.281000", "121528.281000", "121528.296000", "121528.296000", "121528.296000", "121528.296000", "121528.296000", "121528.296000", "121528.296000", "121528.312000", "121528.312000", "121528.312000", "121528.312000", "121528.312000", "121528.328000", "121528.328000", "121528.328000", "121528.328000", "121528.328000", "121528.328000", "121608.281000", "121608.281000", "121608.296000", "121608.296000", "121608.296000", "121608.296000", "121608.296000", "121608.296000", "121608.296000", "121608.312000", "121608.312000", "121608.312000", "121608.312000", "121608.312000", "121608.312000", "121608.312000", "121608.328000", "121608.328000", "121608.328000", "121608.328000", "121648.281000", "121648.281000", "121648.296000", "121648.296000", "121648.296000", "121648.296000", "121648.296000", "121648.296000", "121648.296000", "121648.312000", "121648.312000", "121648.312000", "121648.312000", "121648.312000", "121648.312000", "121648.312000", "121648.312000", "121648.328000", "121648.328000", "121648.328000", "121728.281000", "121728.281000", "121728.296000", "121728.296000", "121728.296000", "121728.296000", "121728.296000", "121728.312000", "121728.312000", "121728.312000", "121728.312000", "121728.312000", "121728.328000", "121728.328000", "121728.328000", "121728.328000", "121728.328000", "121728.328000", "121728.328000", "121728.343000", "121808.281000", "121808.281000", "121808.296000", "121808.296000", "121808.296000", "121808.296000", "121808.296000", "121808.296000", "121808.296000", "121808.312000", "121808.312000", "121808.312000", "121808.312000", "121808.312000", "121808.312000", "121808.312000", "121808.328000", "121808.328000", "121808.328000", "121808.328000", "121848.281000", "121848.281000", "121848.296000", "121848.296000", "121848.296000", "121848.296000", "121848.296000", "121848.296000", "121848.296000", "121848.312000", "121848.312000", "121848.312000", "121848.312000", "121848.312000", "121848.312000", "121848.312000", "121848.312000", "121848.328000", "121848.328000", "121848.328000", "121928.281000", "121928.281000", "121928.296000", "121928.296000", "121928.296000", "121928.296000", "121928.296000", "121928.296000", "121928.296000", "121928.312000", "121928.312000", "121928.312000", "121928.312000", "121928.312000", "121928.312000", "121928.312000", "121928.312000", "121928.328000", "121928.328000", "121928.328000", "121950.515000", "121950.515000", "121950.515000", "121950.515000", "121950.531000", "121950.531000", "121950.531000", "121950.531000", "121950.531000", "121950.531000", "121950.531000", "121950.531000"],
      "InstanceCreationTime": ["121208.296000", "121208.296000", "121208.296000", "121208.296000", "121208.296000", "121208.296000", "121208.296000", "121208.312000", "121248.281000", "121248.281000", "121248.296000", "121248.296000", "121248.296000", "121248.296000", "121248.296000", "121248.296000", "121248.296000", "121248.312000", "121248.312000", "121248.312000", "121248.312000", "121248.312000", "121248.312000", "121248.312000", "121248.312000", "121248.328000", "121248.328000", "121248.328000", "121328.281000", "121328.281000", "121328.296000", "121328.296000", "121328.296000", "121328.296000", "121328.296000", "121328.296000", "121328.296000", "121328.312000", "121328.312000", "121328.312000", "121328.312000", "121328.312000", "121328.312000", "121328.328000", "121328.328000", "121328.328000", "121328.328000", "121328.328000", "121408.281000", "121408.281000", "121408.296000", "121408.296000", "121408.296000", "121408.296000", "121408.296000", "121408.296000", "121408.296000", "121408.312000", "121408.312000", "121408.312000", "121408.312000", "121408.312000", "121408.312000", "121408.312000", "121408.328000", "121408.328000", "121408.328000", "121408.328000", "121448.281000", "121448.281000", "121448.296000", "121448.296000", "121448.296000", "121448.296000", "121448.296000", "121448.312000", "121448.312000", "121448.312000", "121448.312000", "121448.312000", "121448.312000", "121448.328000", "121448.328000", "121448.328000", "121448.328000", "121448.328000", "121448.343000", "121448.343000", "121528.281000", "121528.281000", "121528.296000", "121528.296000", "121528.296000", "121528.296000", "121528.296000", "121528.296000", "121528.296000", "121528.312000", "121528.312000", "121528.312000", "121528.312000", "121528.312000", "121528.328000", "121528.328000", "121528.328000", "121528.328000", "121528.328000", "121528.328000", "121608.281000", "121608.281000", "121608.296000", "121608.296000", "121608.296000", "121608.296000", "121608.296000", "121608.296000", "121608.296000", "121608.312000", "121608.312000", "121608.312000", "121608.312000", "121608.312000", "121608.312000", "121608.312000", "121608.328000", "121608.328000", "121608.328000", "121608.328000", "121648.281000", "121648.281000", "121648.296000", "121648.296000", "121648.296000", "121648.296000", "121648.296000", "121648.296000", "121648.296000", "121648.312000", "121648.312000", "121648.312000", "121648.312000", "121648.312000", "121648.312000", "121648.312000", "121648.312000", "121648.328000", "121648.328000", "121648.328000", "121728.281000", "121728.281000", "121728.296000", "121728.296000", "121728.296000", "121728.296000", "121728.296000", "121728.312000", "121728.312000", "121728.312000", "121728.312000", "121728.312000", "121728.328000", "121728.328000", "121728.328000", "121728.328000", "121728.328000", "121728.328000", "121728.328000", "121728.343000", "121808.281000", "121808.281000", "121808.296000", "121808.296000", "121808.296000", "121808.296000", "121808.296000", "121808.296000", "121808.296000", "121808.312000", "121808.312000", "121808.312000", "121808.312000", "121808.312000", "121808.312000", "121808.312000", "121808.328000", "121808.328000", "121808.328000", "121808.328000", "121848.281000", "121848.281000", "121848.296000", "121848.296000", "121848.296000", "121848.296000", "121848.296000", "121848.296000", "121848.296000", "121848.312000", "121848.312000", "121848.312000", "121848.312000", "121848.312000", "121848.312000", "121848.312000", "121848.312000", "121848.328000", "121848.328000", "121848.328000", "121928.281000", "121928.281000", "121928.296000", "121928.296000", "121928.296000", "121928.296000", "121928.296000", "121928.296000", "121928.296000", "121928.312000", "121928.312000", "121928.312000", "121928.312000", "121928.312000", "121928.312000", "121928.312000", "121928.312000", "121928.328000", "121928.328000", "121928.328000", "121950.515000", "121950.515000", "121950.515000", "121950.515000", "121950.531000", "121950.531000", "121950.531000", "121950.531000", "121950.531000", "121950.531000", "121950.531000", "121950.531000"],
      "InstanceNumber": [1, 2, 3, 4, 5, 6, 7, 8, 9, 10, 11, 12, 13, 14, 15, 16, 17, 18, 19, 20, 21, 22, 23, 24, 25, 26, 27, 28, 29, 30, 31, 32, 33, 34, 35, 36, 37, 38, 39, 40, 41, 42, 43, 44, 45, 46, 47, 48, 49, 50, 51, 52, 53, 54, 55, 56, 57, 58, 59, 60, 61, 62, 63, 64, 65, 66, 67, 68, 69, 70, 71, 72, 73, 74, 75, 76, 77, 78, 79, 80, 81, 82, 83, 84, 85, 86, 87, 88, 89, 90, 91, 92, 93, 94, 95, 96, 97, 98, 99, 100, 101, 102, 103, 104, 105, 106, 107, 108, 109, 110, 111, 112, 113, 114, 115, 116, 117, 118, 119, 120, 121, 122, 123, 124, 125, 126, 127, 128, 129, 130, 131, 132, 133, 134, 135, 136, 137, 138, 139, 140, 141, 142, 143, 144, 145, 146, 147, 148, 149, 150, 151, 152, 153, 154, 155, 156, 157, 158, 159, 160, 161, 162, 163, 164, 165, 166, 167, 168, 169, 170, 171, 172, 173, 174, 175, 176, 177, 178, 179, 180, 181, 182, 183, 184, 185, 186, 187, 188, 189, 190, 191, 192, 193, 194, 195, 196, 197, 198, 199, 200, 201, 202, 203, 204, 205, 206, 207, 208, 209, 210, 211, 212, 213, 214, 215, 216, 217, 218, 219, 220, 221, 222, 223, 224, 225, 226, 227, 228, 229, 230, 231, 232, 233, 234, 235, 236, 237, 238, 239, 240],
      "LargestImagePixelValue": [1922, 1824, 1799, 1775, 1787, 1766, 1739, 1737, 1780, 1738, 1720, 1735, 1766, 1740, 1734, 1758, 1744, 1741, 1754, 1756, 1735, 1771, 1769, 1767, 1735, 1750, 1758, 1761, 1743, 1759, 1755, 1770, 1766, 1764, 1765, 1754, 1782, 1772, 1755, 1768, 1768, 1749, 1770, 1746, 1755, 1765, 1746, 1746, 1763, 1774, 1764, 1759, 1745, 1739, 1754, 1786, 1762, 1751, 1778, 1757, 1773, 1757, 1770, 1752, 1799, 1754, 1763, 1756, 1788, 1810, 1741, 1735, 1791, 1741, 1800, 1746, 1799, 1790, 1746, 1794, 1733, 1770, 1779, 1919, 1996, 1794, 1817, 1811, 1816, 1799, 1831, 1826, 1834, 1803, 1774, 1787, 1820, 1776, 1806, 1757, 1763, 1807, 1747, 1763, 1773, 1776, 1756, 1718, 1758, 1711, 1771, 1726, 1740, 1746, 1717, 1702, 1720, 1745, 1755, 1769, 1741, 1774, 1711, 1737, 1734, 1766, 1768, 1721, 1779, 1771, 1776, 1749, 1741, 1731, 1737, 1763, 1739, 1748, 1749, 1748, 1751, 1743, 1743, 1820, 1851, 1815, 1797, 1875, 1783, 1849, 1817, 1895, 1843, 1834, 1856, 1818, 1837, 1844, 1831, 1807, 1832, 1812, 1821, 1839, 1819, 1812, 1824, 1825, 1816, 1825, 1790, 1820, 1853, 1816, 1840, 1826, 1825, 1858, 1859, 1821, 1820, 1821, 1823, 1822, 1819, 1852, 1817, 1841, 1849, 1848, 1844, 1833, 1828, 1841, 1833, 1820, 1833, 1834, 1852, 1842, 1813, 1835, 1796, 1821, 1823, 1877, 1840, 1852, 1876, 1856, 1826, 1827, 1831, 1864, 1820, 1845, 1843, 1822, 1851, 1838, 1846, 1833, 1849, 1842, 1849, 1846, 1855, 1832, 1847, 1851, 1840, 1832, 1815, 1847, 1822, 1837, 1839, 1829, 1863, 1861],
      "WindowCenter": [776.0, 771.0, 770.0, 769.0, 770.0, 770.0, 770.0, 769.0, 768.0, 768.0, 767.0, 767.0, 768.0, 767.0, 768.0, 768.0, 768.0, 768.0, 768.0, 768.0, 768.0, 770.0, 770.0, 769.0, 768.0, 768.0, 769.0, 770.0, 769.0, 770.0, 770.0, 770.0, 769.0, 769.0, 769.0, 770.0, 770.0, 770.0, 769.0, 770.0, 769.0, 769.0, 770.0, 770.0, 770.0, 770.0, 770.0, 770.0, 770.0, 771.0, 770.0, 770.0, 770.0, 771.0, 771.0, 771.0, 771.0, 771.0, 770.0, 771.0, 773.0, 772.0, 770.0, 770.0, 770.0, 770.0, 770.0, 771.0, 771.0, 771.0, 770.0, 771.0, 771.0, 771.0, 772.0, 772.0, 772.0, 771.0, 773.0, 773.0, 775.0, 777.0, 774.0, 783.0, 770.0, 764.0, 763.0, 765.0, 765.0, 766.0, 767.0, 769.0, 770.0, 771.0, 769.0, 768.0, 769.0, 770.0, 770.0, 768.0, 768.0, 769.0, 768.0, 769.0, 769.0, 769.0, 769.0, 771.0, 771.0, 770.0, 769.0, 769.0, 769.0, 769.0, 769.0, 769.0, 768.0, 770.0, 771.0, 770.0, 769.0, 769.0, 769.0, 767.0, 766.0, 766.0, 767.0, 768.0, 769.0, 768.0, 768.0, 767.0, 767.0, 767.0, 768.0, 768.0, 768.0, 768.0, 768.0, 769.0, 770.0, 772.0, 772.0, 772.0, 772.0, 770.0, 769.0, 768.0, 764.0, 764.0, 765.0, 767.0, 767.0, 768.0, 770.0, 770.0, 771.0, 771.0, 771.0, 770.0, 770.0, 771.0, 771.0, 771.0, 771.0, 771.0, 771.0, 771.0, 771.0, 771.0, 771.0, 770.0, 771.0, 773.0, 772.0, 770.0, 770.0, 770.0, 770.0, 770.0, 770.0, 771.0, 770.0, 770.0, 769.0, 770.0, 771.0, 772.0, 772.0, 773.0, 773.0, 772.0, 770.0, 770.0, 770.0, 770.0, 770.0, 769.0, 769.0, 770.0, 770.0, 770.0, 771.0, 771.0, 771.0, 771.0, 772.0, 773.0, 773.0, 773.0, 771.0, 770.0, 770.0, 770.0, 771.0, 771.0, 772.0, 771.0, 772.0, 772.0, 772.0, 772.0, 772.0, 771.0, 771.0, 770.0, 770.0, 771.0, 772.0, 772.0, 772.0, 772.0, 772.0, 773.0, 772.0, 772.0, 772.0, 772.0, 772.0, 771.0],
      "WindowWidth": [1639.0, 1625.0, 1622.0, 1621.0, 1621.0, 1621.0, 1621.0, 1620.0, 1618.0, 1616.0, 1614.0, 1616.0, 1617.0, 1615.0, 1616.0, 1618.0, 1617.0, 1617.0, 1617.0, 1617.0, 1618.0, 1621.0, 1622.0, 1619.0, 1618.0, 1618.0, 1619.0, 1621.0, 1620.0, 1621.0, 1622.0, 1623.0, 1620.0, 1619.0, 1618.0, 1623.0, 1623.0, 1620.0, 1620.0, 1622.0, 1620.0, 1619.0, 1621.0, 1622.0, 1622.0, 1621.0, 1621.0, 1621.0, 1621.0, 1624.0, 1621.0, 1621.0, 1620.0, 1623.0, 1624.0, 1623.0, 1623.0, 1625.0, 1623.0, 1625.0, 1627.0, 1625.0, 1622.0, 1620.0, 1620.0, 1621.0, 1622.0, 1624.0, 1623.0, 1622.0, 1622.0, 1624.0, 1624.0, 1623.0, 1626.0, 1626.0, 1625.0, 1623.0, 1627.0, 1631.0, 1634.0, 1637.0, 1633.0, 1654.0, 1625.0, 1609.0, 1608.0, 1611.0, 1613.0, 1614.0, 1617.0, 1622.0, 1625.0, 1626.0, 1623.0, 1620.0, 1621.0, 1623.0, 1625.0, 1620.0, 1620.0, 1622.0, 1620.0, 1622.0, 1621.0, 1621.0, 1621.0, 1626.0, 1628.0, 1623.0, 1622.0, 1622.0, 1622.0, 1621.0, 1622.0, 1622.0, 1620.0, 1624.0, 1625.0, 1624.0, 1621.0, 1622.0, 1621.0, 1617.0, 1613.0, 1614.0, 1618.0, 1620.0, 1621.0, 1620.0, 1620.0, 1618.0, 1617.0, 1617.0, 1619.0, 1619.0, 1619.0, 1618.0, 1620.0, 1622.0, 1625.0, 1629.0, 1631.0, 1630.0, 1628.0, 1625.0, 1622.0, 1618.0, 1610.0, 1609.0, 1613.0, 1618.0, 1616.0, 1620.0, 1625.0, 1626.0, 1627.0, 1628.0, 1627.0, 1625.0, 1624.0, 1626.0, 1627.0, 1627.0, 1627.0, 1626.0, 1627.0, 1627.0, 1628.0, 1628.0, 1627.0, 1626.0, 1627.0, 1631.0, 1630.0, 1625.0, 1624.0, 1624.0, 1624.0, 1624.0, 1625.0, 1626.0, 1626.0, 1624.0, 1623.0, 1625.0, 1627.0, 1629.0, 1630.0, 1631.0, 1631.0, 1629.0, 1625.0, 1624.0, 1624.0, 1623.0, 1624.0, 1622.0, 1623.0, 1624.0, 1624.0, 1624.0, 1626.0, 1628.0, 1626.0, 1627.0, 1629.0, 1631.0, 1633.0, 1630.0, 1627.0, 1625.0, 1624.0, 1624.0, 1628.0, 1627.0, 1627.0, 1626.0, 1629.0, 1629.0, 1630.0, 1628.0, 1628.0, 1628.0, 1625.0, 1624.0, 1625.0, 1627.0, 1629.0, 1629.0, 1628.0, 1629.0, 1628.0, 1630.0, 1629.0, 1630.0, 1629.0, 1628.0, 1628.0, 1628.0]
    },
    "slices": {}
  }
}