{
  "AcquisitionMatrixPE": 68,
  "AcquisitionNumber": 1,
  "AcquisitionTime": "11:44:28.637500",
  "BandwidthPerPixelPhaseEncode": 31.289,
  "BaseResolution": 68,
  "CoilString": "C:HEA;HEP",
  "ConversionSoftware": "dcm2niix",
  "ConversionSoftwareVersion": "v1.0.20190902",
  "DerivedVendorReportedEchoSpacing": 0.000470002,
  "DeviceSerialNumber": "35450",
  "DwellTime": 3e-06,
  "EchoTime": 0.023,
  "EffectiveEchoSpacing": 0.000470002,
  "FlipAngle": 76,
  "ImageOrientationPatientDICOM": [1, 0, 0, 0, 0.988228, -0.152986],
  "ImageType": [
    "ORIGINAL",
    "PRIMARY",
    "M",
    "ND",
    "MOSAIC"
],
  "ImagingFrequency": 123.218,
  "InPlanePhaseEncodingDirectionDICOM": "COL",
  "InstitutionAddress": "Univeristy_Ave._197_Newark_North_East_US_07102-1814",
  "InstitutionName": "RUBIC",
  "InstitutionalDepartmentName": "Department",
  "MRAcquisitionType": "2D",
  "MagneticFieldStrength": 3,
  "Manufacturer": "Siemens",
  "ManufacturersModelName": "TrioTim",
  "Modality": "MR",
  "PartialFourier": 1,
  "PatientPosition": "HFS",
  "PercentPhaseFOV": 100,
  "PhaseEncodingDirection": "j-",
  "PhaseEncodingSteps": 68,
  "PhaseResolution": 1,
  "PixelBandwidth": 2451,
  "ProcedureStepDescription": "Krekelberg_David",
  "ProtocolName": "ep2d_bold_RestEPI_1",
  "PulseSequenceDetails": "%SiemensSeq%_ep2d_bold",
  "ReceiveCoilName": "HeadMatrix",
  "ReconMatrixPE": 68,
  "RepetitionTime": 2,
  "SAR": 0.229907,
  "ScanOptions": "FS",
  "ScanningSequence": "EP",
  "SequenceName": "_epfid2d1_68",
  "SequenceVariant": "SK",
  "SeriesDescription": "ep2d_bold_RestEPI_1",
  "SeriesNumber": 6,
  "ShimSetting": [1963, -666, -7514, 631, 37, -44, -413, -11],
  "SliceThickness": 2.5,
  "SliceTiming": [1.95, 1.895, 1.84, 1.7825, 1.7275, 1.6725, 1.6175, 1.56, 1.505, 1.45, 1.3925, 1.3375, 1.2825, 1.225, 1.17, 1.115, 1.06, 1.0025, 0.9475, 0.8925, 0.835, 0.78, 0.725, 0.6675, 0.6125, 0.5575, 0.5, 0.445, 0.39, 0.335, 0.2775, 0.2225, 0.1675, 0.11, 0.055, 0],
  "SoftwareVersions": "syngo_MR_B19",
  "SpacingBetweenSlices": 3,
  "StationName": "MRC35450",
  "TaskName": "rest",
  "TotalReadoutTime": 0.0314901,
  "TxRefAmp": 478.846,
  "dcmmeta_affine": [
    [-3.0, 0.0, 0.0, 102.0],
    [0.0, 2.9646852016448975, -0.4589575231075287, -65.39607238769531],
    [0.0, 0.4589575231075287, 2.9646852016448975, -51.43436813354492],
    [0.0, 0.0, 0.0, 1.0]
],
  "dcmmeta_reorient_transform": [
    [0.0, -1.0, 0.0, 67.0],
    [1.0, 0.0, 0.0, 0.0],
    [0.0, 0.0, 1.0, 0.0],
    [0.0, 0.0, 0.0, 1.0]
],
  "dcmmeta_shape": [68, 68, 36, 240],
  "dcmmeta_slice_dim": 2,
  "dcmmeta_version": 0.6,
  "global": {
    "const": {
      "AcquisitionMatrix": [68, 0, 0, 68],
      "AngioFlag": "N",
      "BitsAllocated": 16,
      "BitsStored": 12,
      "Columns": 408,
      "EchoNumbers": 1,
      "EchoTime": 23.0,
      "EchoTrainLength": 1,
      "FlipAngle": 76.0,
      "HighBit": 11,
      "ImageOrientationPatient": [1.0, 0.0, 0.0, 0.0, 0.9882283809914, -0.1529858392241],
      "ImagePositionPatient": [-612.0, -637.23430676439, 57.338564836851],
      "ImageType": [
        "ORIGINAL",
        "PRIMARY",
        "M",
        "ND",
        "MOSAIC"
],
      "ImagedNucleus": "1H",
      "ImagingFrequency": 123.21838,
      "InPlanePhaseEncodingDirection": "COL",
      "MRAcquisitionType": "2D",
      "MagneticFieldStrength": 3.0,
      "Manufacturer": "SIEMENS",
      "ManufacturerModelName": "TrioTim",
      "Modality": "MR",
      "NumberOfAverages": 1.0,
      "NumberOfPhaseEncodingSteps": 68,
      "PercentPhaseFieldOfView": 100.0,
      "PercentSampling": 100.0,
      "PerformedProcedureStepStartTime": "112056.812000",
      "PhotometricInterpretation": "MONOCHROME2",
      "PixelBandwidth": 2451.0,
      "PixelRepresentation": 0,
      "PixelSpacing": [3.0, 3.0],
      "ProtocolName": "ep2d_bold_RestEPI_1",
      "RepetitionTime": 2000.0,
      "Rows": 408,
      "SAR": 0.22990693333829,
      "SamplesPerPixel": 1,
      "ScanOptions": "FS",
      "ScanningSequence": "EP",
      "SequenceName": "*epfid2d1_68",
      "SequenceVariant": "SK",
      "SeriesDescription": "ep2d_bold_RestEPI_1",
      "SeriesNumber": 6,
      "SeriesTime": "114528.281000",
      "SliceLocation": -40.82422810566,
      "SliceThickness": 2.5,
      "SmallestImagePixelValue": 0,
      "SoftwareVersions": "syngo MR B19",
      "SpacingBetweenSlices": 3.0000000229381,
      "SpecificCharacterSet": "ISO_IR 100",
      "StudyID": "1",
      "StudyTime": "112056.703000",
      "TransmitCoilName": "Body",
      "VariableFlipAngleFlag": "N",
      "WindowCenterWidthExplanation": "Algo1",
      "dBdt": 0.0},
    "slices": {}
  },
  "time": {
    "samples": {
      "AcquisitionNumber": [1, 2, 3, 4, 5, 6, 7, 8, 9, 10, 11, 12, 13, 14, 15, 16, 17, 18, 19, 20, 21, 22, 23, 24, 25, 26, 27, 28, 29, 30, 31, 32, 33, 34, 35, 36, 37, 38, 39, 40, 41, 42, 43, 44, 45, 46, 47, 48, 49, 50, 51, 52, 53, 54, 55, 56, 57, 58, 59, 60, 61, 62, 63, 64, 65, 66, 67, 68, 69, 70, 71, 72, 73, 74, 75, 76, 77, 78, 79, 80, 81, 82, 83, 84, 85, 86, 87, 88, 89, 90, 91, 92, 93, 94, 95, 96, 97, 98, 99, 100, 101, 102, 103, 104, 105, 106, 107, 108, 109, 110, 111, 112, 113, 114, 115, 116, 117, 118, 119, 120, 121, 122, 123, 124, 125, 126, 127, 128, 129, 130, 131, 132, 133, 134, 135, 136, 137, 138, 139, 140, 141, 142, 143, 144, 145, 146, 147, 148, 149, 150, 151, 152, 153, 154, 155, 156, 157, 158, 159, 160, 161, 162, 163, 164, 165, 166, 167, 168, 169, 170, 171, 172, 173, 174, 175, 176, 177, 178, 179, 180, 181, 182, 183, 184, 185, 186, 187, 188, 189, 190, 191, 192, 193, 194, 195, 196, 197, 198, 199, 200, 201, 202, 203, 204, 205, 206, 207, 208, 209, 210, 211, 212, 213, 214, 215, 216, 217, 218, 219, 220, 221, 222, 223, 224, 225, 226, 227, 228, 229, 230, 231, 232, 233, 234, 235, 236, 237, 238, 239, 240],
      "AcquisitionTime": ["114428.637500", "114430.647500", "114432.655000", "114434.662500", "114436.670000", "114438.677500", "114440.687500", "114442.695000", "114444.702500", "114446.710000", "114448.720000", "114450.727500", "114452.735000", "114454.742500", "114456.750000", "114458.760000", "114500.767500", "114502.775000", "114504.782500", "114506.790000", "114508.800000", "114510.807500", "114512.815000", "114514.822500", "114516.832500", "114518.840000", "114520.847500", "114522.855000", "114524.862500", "114526.872500", "114528.880000", "114530.887500", "114532.895000", "114534.902500", "114536.912500", "114538.920000", "114540.927500", "114542.935000", "114544.942500", "114546.952500", "114548.960000", "114550.967500", "114552.975000", "114554.985000", "114556.992500", "114559.000000", "114601.007500", "114603.015000", "114605.025000", "114607.032500", "114609.040000", "114611.047500", "114613.055000", "114615.065000", "114617.072500", "114619.080000", "114621.087500", "114623.097500", "114625.105000", "114627.112500", "114629.120000", "114631.127500", "114633.137500", "114635.145000", "114637.152500", "114639.160000", "114641.167500", "114643.177500", "114645.185000", "114647.192500", "114649.200000", "114651.210000", "114653.217500", "114655.225000", "114657.232500", "114659.240000", "114701.250000", "114703.257500", "114705.265000", "114707.272500", "114709.280000", "114711.290000", "114713.297500", "114715.305000", "114717.312500", "114719.320000", "114721.330000", "114723.337500", "114725.345000", "114727.352500", "114729.362500", "114731.370000", "114733.377500", "114735.385000", "114737.392500", "114739.402500", "114741.410000", "114743.417500", "114745.425000", "114747.432500", "114749.442500", "114751.450000", "114753.457500", "114755.465000", "114757.475000", "114759.482500", "114801.490000", "114803.497500", "114805.505000", "114807.515000", "114809.522500", "114811.530000", "114813.537500", "114815.545000", "114817.555000", "114819.562500", "114821.570000", "114823.577500", "114825.587500", "114827.595000", "114829.602500", "114831.610000", "114833.617500", "114835.627500", "114837.635000", "114839.642500", "114841.650000", "114843.657500", "114845.667500", "114847.675000", "114849.682500", "114851.690000", "114853.697500", "114855.707500", "114857.715000", "114859.722500", "114901.730000", "114903.740000", "114905.747500", "114907.755000", "114909.762500", "114911.770000", "114913.780000", "114915.787500", "114917.795000", "114919.802500", "114921.810000", "114923.820000", "114925.827500", "114927.835000", "114929.842500", "114931.852500", "114933.860000", "114935.867500", "114937.875000", "114939.882500", "114941.892500", "114943.900000", "114945.907500", "114947.915000", "114949.922500", "114951.932500", "114953.940000", "114955.947500", "114957.955000", "114959.965000", "115001.972500", "115003.980000", "115005.987500", "115007.995000", "115010.005000", "115012.012500", "115014.020000", "115016.027500", "115018.035000", "115020.045000", "115022.052500", "115024.060000", "115026.067500", "115028.077500", "115030.085000", "115032.092500", "115034.100000", "115036.107500", "115038.117500", "115040.125000", "115042.132500", "115044.140000", "115046.147500", "115048.157500", "115050.165000", "115052.172500", "115054.180000", "115056.187500", "115058.197500", "115100.205000", "115102.212500", "115104.220000", "115106.230000", "115108.237500", "115110.245000", "115112.252500", "115114.260000", "115116.270000", "115118.277500", "115120.285000", "115122.292500", "115124.300000", "115126.310000", "115128.317500", "115130.325000", "115132.332500", "115134.342500", "115136.350000", "115138.357500", "115140.365000", "115142.372500", "115144.382500", "115146.390000", "115148.397500", "115150.405000", "115152.412500", "115154.422500", "115156.430000", "115158.437500", "115200.445000", "115202.455000", "115204.462500", "115206.470000", "115208.477500", "115210.485000", "115212.495000", "115214.502500", "115216.510000", "115218.517500", "115220.525000", "115222.535000", "115224.542500", "115226.550000", "115228.557500"],
      "ContentTime": ["114528.296000", "114528.296000", "114528.296000", "114528.296000", "114528.296000", "114528.296000", "114528.296000", "114528.312000", "114528.312000", "114528.312000", "114528.312000", "114528.312000", "114528.312000", "114528.312000", "114528.328000", "114528.328000", "114528.328000", "114528.328000", "114528.328000", "114528.328000", "114528.328000", "114528.343000", "114528.343000", "114528.343000", "114528.343000", "114528.343000", "114528.343000", "114528.343000", "114528.359000", "114608.281000", "114608.296000", "114608.296000", "114608.296000", "114608.296000", "114608.296000", "114608.296000", "114608.296000", "114608.296000", "114608.312000", "114608.312000", "114608.312000", "114608.312000", "114608.312000", "114608.312000", "114608.312000", "114608.328000", "114608.328000", "114608.328000", "114608.328000", "114648.281000", "114648.296000", "114648.296000", "114648.296000", "114648.296000", "114648.296000", "114648.296000", "114648.296000", "114648.296000", "114648.312000", "114648.312000", "114648.312000", "114648.312000", "114648.312000", "114648.312000", "114648.312000", "114648.328000", "114648.328000", "114648.328000", "114648.328000", "114728.281000", "114728.281000", "114728.296000", "114728.296000", "114728.296000", "114728.296000", "114728.296000", "114728.296000", "114728.296000", "114728.312000", "114728.312000", "114728.312000", "114728.312000", "114728.312000", "114728.312000", "114728.312000", "114728.328000", "114728.328000", "114728.328000", "114728.328000", "114808.281000", "114808.296000", "114808.296000", "114808.296000", "114808.296000", "114808.296000", "114808.312000", "114808.312000", "114808.312000", "114808.312000", "114808.312000", "114808.312000", "114808.312000", "114808.328000", "114808.328000", "114808.328000", "114808.328000", "114808.328000", "114808.328000", "114808.328000", "114848.281000", "114848.281000", "114848.296000", "114848.296000", "114848.296000", "114848.296000", "114848.296000", "114848.296000", "114848.296000", "114848.312000", "114848.312000", "114848.312000", "114848.312000", "114848.312000", "114848.312000", "114848.312000", "114848.328000", "114848.328000", "114848.328000", "114848.328000", "114928.281000", "114928.296000", "114928.296000", "114928.296000", "114928.296000", "114928.296000", "114928.296000", "114928.296000", "114928.296000", "114928.312000", "114928.312000", "114928.312000", "114928.312000", "114928.312000", "114928.312000", "114928.312000", "114928.328000", "114928.328000", "114928.328000", "114928.328000", "115008.281000", "115008.281000", "115008.296000", "115008.296000", "115008.296000", "115008.296000", "115008.296000", "115008.296000", "115008.312000", "115008.312000", "115008.312000", "115008.312000", "115008.312000", "115008.328000", "115008.328000", "115008.328000", "115008.328000", "115008.328000", "115008.328000", "115008.328000", "115048.281000", "115048.281000", "115048.296000", "115048.296000", "115048.296000", "115048.296000", "115048.296000", "115048.296000", "115048.296000", "115048.312000", "115048.312000", "115048.312000", "115048.312000", "115048.328000", "115048.328000", "115048.328000", "115048.328000", "115048.328000", "115048.328000", "115048.328000", "115108.281000", "115108.281000", "115108.296000", "115108.296000", "115108.296000", "115108.296000", "115108.296000", "115108.296000", "115108.296000", "115108.312000", "115148.281000", "115148.296000", "115148.296000", "115148.296000", "115148.296000", "115148.296000", "115148.296000", "115148.296000", "115148.296000", "115148.312000", "115148.312000", "115148.312000", "115148.312000", "115148.312000", "115148.312000", "115148.312000", "115148.328000", "115148.328000", "115148.328000", "115148.328000", "115228.281000", "115228.296000", "115228.296000", "115228.296000", "115228.296000", "115228.296000", "115228.296000", "115228.296000", "115228.296000", "115228.312000", "115228.312000", "115228.312000", "115228.312000", "115228.312000", "115228.312000", "115228.312000", "115228.328000", "115228.328000", "115228.328000", "115228.328000", "115228.375000"],
      "InstanceCreationTime": ["114528.296000", "114528.296000", "114528.296000", "114528.296000", "114528.296000", "114528.296000", "114528.296000", "114528.312000", "114528.312000", "114528.312000", "114528.312000", "114528.312000", "114528.312000", "114528.312000", "114528.328000", "114528.328000", "114528.328000", "114528.328000", "114528.328000", "114528.328000", "114528.328000", "114528.343000", "114528.343000", "114528.343000", "114528.343000", "114528.343000", "114528.343000", "114528.343000", "114528.359000", "114608.281000", "114608.296000", "114608.296000", "114608.296000", "114608.296000", "114608.296000", "114608.296000", "114608.296000", "114608.296000", "114608.312000", "114608.312000", "114608.312000", "114608.312000", "114608.312000", "114608.312000", "114608.312000", "114608.328000", "114608.328000", "114608.328000", "114608.328000", "114648.281000", "114648.296000", "114648.296000", "114648.296000", "114648.296000", "114648.296000", "114648.296000", "114648.296000", "114648.296000", "114648.312000", "114648.312000", "114648.312000", "114648.312000", "114648.312000", "114648.312000", "114648.312000", "114648.328000", "114648.328000", "114648.328000", "114648.328000", "114728.281000", "114728.281000", "114728.296000", "114728.296000", "114728.296000", "114728.296000", "114728.296000", "114728.296000", "114728.296000", "114728.312000", "114728.312000", "114728.312000", "114728.312000", "114728.312000", "114728.312000", "114728.312000", "114728.328000", "114728.328000", "114728.328000", "114728.328000", "114808.281000", "114808.296000", "114808.296000", "114808.296000", "114808.296000", "114808.296000", "114808.312000", "114808.312000", "114808.312000", "114808.312000", "114808.312000", "114808.312000", "114808.312000", "114808.328000", "114808.328000", "114808.328000", "114808.328000", "114808.328000", "114808.328000", "114808.328000", "114848.281000", "114848.281000", "114848.296000", "114848.296000", "114848.296000", "114848.296000", "114848.296000", "114848.296000", "114848.296000", "114848.312000", "114848.312000", "114848.312000", "114848.312000", "114848.312000", "114848.312000", "114848.312000", "114848.328000", "114848.328000", "114848.328000", "114848.328000", "114928.281000", "114928.296000", "114928.296000", "114928.296000", "114928.296000", "114928.296000", "114928.296000", "114928.296000", "114928.296000", "114928.312000", "114928.312000", "114928.312000", "114928.312000", "114928.312000", "114928.312000", "114928.312000", "114928.328000", "114928.328000", "114928.328000", "114928.328000", "115008.281000", "115008.281000", "115008.296000", "115008.296000", "115008.296000", "115008.296000", "115008.296000", "115008.296000", "115008.312000", "115008.312000", "115008.312000", "115008.312000", "115008.312000", "115008.328000", "115008.328000", "115008.328000", "115008.328000", "115008.328000", "115008.328000", "115008.328000", "115048.281000", "115048.281000", "115048.296000", "115048.296000", "115048.296000", "115048.296000", "115048.296000", "115048.296000", "115048.296000", "115048.312000", "115048.312000", "115048.312000", "115048.312000", "115048.328000", "115048.328000", "115048.328000", "115048.328000", "115048.328000", "115048.328000", "115048.328000", "115108.281000", "115108.281000", "115108.296000", "115108.296000", "115108.296000", "115108.296000", "115108.296000", "115108.296000", "115108.296000", "115108.312000", "115148.281000", "115148.296000", "115148.296000", "115148.296000", "115148.296000", "115148.296000", "115148.296000", "115148.296000", "115148.296000", "115148.312000", "115148.312000", "115148.312000", "115148.312000", "115148.312000", "115148.312000", "115148.312000", "115148.328000", "115148.328000", "115148.328000", "115148.328000", "115228.281000", "115228.296000", "115228.296000", "115228.296000", "115228.296000", "115228.296000", "115228.296000", "115228.296000", "115228.296000", "115228.312000", "115228.312000", "115228.312000", "115228.312000", "115228.312000", "115228.312000", "115228.312000", "115228.328000", "115228.328000", "115228.328000", "115228.328000", "115228.375000"],
      "InstanceNumber": [1, 2, 3, 4, 5, 6, 7, 8, 9, 10, 11, 12, 13, 14, 15, 16, 17, 18, 19, 20, 21, 22, 23, 24, 25, 26, 27, 28, 29, 30, 31, 32, 33, 34, 35, 36, 37, 38, 39, 40, 41, 42, 43, 44, 45, 46, 47, 48, 49, 50, 51, 52, 53, 54, 55, 56, 57, 58, 59, 60, 61, 62, 63, 64, 65, 66, 67, 68, 69, 70, 71, 72, 73, 74, 75, 76, 77, 78, 79, 80, 81, 82, 83, 84, 85, 86, 87, 88, 89, 90, 91, 92, 93, 94, 95, 96, 97, 98, 99, 100, 101, 102, 103, 104, 105, 106, 107, 108, 109, 110, 111, 112, 113, 114, 115, 116, 117, 118, 119, 120, 121, 122, 123, 124, 125, 126, 127, 128, 129, 130, 131, 132, 133, 134, 135, 136, 137, 138, 139, 140, 141, 142, 143, 144, 145, 146, 147, 148, 149, 150, 151, 152, 153, 154, 155, 156, 157, 158, 159, 160, 161, 162, 163, 164, 165, 166, 167, 168, 169, 170, 171, 172, 173, 174, 175, 176, 177, 178, 179, 180, 181, 182, 183, 184, 185, 186, 187, 188, 189, 190, 191, 192, 193, 194, 195, 196, 197, 198, 199, 200, 201, 202, 203, 204, 205, 206, 207, 208, 209, 210, 211, 212, 213, 214, 215, 216, 217, 218, 219, 220, 221, 222, 223, 224, 225, 226, 227, 228, 229, 230, 231, 232, 233, 234, 235, 236, 237, 238, 239, 240],
      "LargestImagePixelValue": [1961, 1891, 1840, 1864, 1824, 1858, 1869, 1871, 1840, 1832, 1761, 1777, 1803, 1849, 1824, 1853, 1891, 1837, 1819, 1854, 1860, 1879, 1836, 1822, 1851, 1818, 1836, 1840, 1834, 1844, 1851, 1887, 1832, 1839, 1844, 1832, 1889, 1858, 1832, 1831, 1867, 1864, 1874, 1821, 1857, 1842, 1857, 1850, 1824, 1872, 1839, 1872, 1827, 1840, 1821, 1827, 1830, 1812, 1851, 1822, 1850, 1865, 1842, 1873, 1866, 1806, 1820, 1802, 1815, 1846, 1869, 1860, 1897, 1862, 1844, 1848, 1843, 1859, 1854, 1849, 1874, 1877, 1878, 1851, 1845, 1862, 1837, 1855, 1868, 1861, 1852, 1871, 1860, 1862, 1892, 1902, 1883, 1860, 1826, 1824, 1867, 1846, 1869, 1855, 1883, 1868, 1856, 1822, 1835, 1855, 1862, 1870, 1902, 1858, 1885, 1895, 1882, 1853, 1856, 1832, 1828, 1858, 1904, 1872, 1897, 1848, 1839, 1844, 1850, 1848, 1872, 1850, 1844, 1848, 1849, 1854, 1868, 1857, 1850, 1852, 1900, 1861, 1864, 1846, 1844, 1825, 1801, 1802, 1843, 1819, 1820, 1845, 1866, 1848, 1874, 1871, 1871, 1893, 1835, 1852, 1825, 1879, 1858, 1862, 1821, 1826, 1805, 1843, 1836, 1832, 1840, 1857, 1824, 1871, 1877, 1848, 1878, 1866, 1896, 1852, 1859, 1909, 1858, 1860, 1869, 1848, 1844, 1849, 1875, 1905, 1849, 1907, 1844, 1822, 1841, 1854, 1874, 1840, 1848, 1843, 1862, 1846, 1848, 1866, 1864, 1858, 1874, 1848, 1879, 1856, 1863, 1863, 1856, 1836, 1847, 1855, 1893, 1876, 1861, 1853, 1901, 1855, 1825, 1845, 1875, 1886, 1854, 1867, 1871, 1848, 1865, 1877, 1865, 1883, 1913, 1883, 1843, 1867, 1867, 1851],
      "WindowCenter": [780.0, 776.0, 774.0, 772.0, 771.0, 771.0, 771.0, 771.0, 771.0, 774.0, 771.0, 770.0, 771.0, 772.0, 772.0, 771.0, 771.0, 771.0, 771.0, 772.0, 772.0, 773.0, 774.0, 774.0, 775.0, 774.0, 773.0, 773.0, 773.0, 773.0, 773.0, 773.0, 773.0, 773.0, 773.0, 773.0, 774.0, 773.0, 774.0, 774.0, 773.0, 772.0, 773.0, 773.0, 774.0, 773.0, 774.0, 774.0, 773.0, 774.0, 775.0, 775.0, 775.0, 775.0, 775.0, 775.0, 775.0, 775.0, 774.0, 774.0, 774.0, 774.0, 774.0, 776.0, 777.0, 778.0, 777.0, 776.0, 775.0, 775.0, 775.0, 775.0, 776.0, 776.0, 775.0, 776.0, 776.0, 775.0, 775.0, 775.0, 775.0, 775.0, 776.0, 776.0, 777.0, 777.0, 777.0, 777.0, 778.0, 777.0, 777.0, 778.0, 777.0, 777.0, 777.0, 777.0, 778.0, 778.0, 778.0, 777.0, 777.0, 777.0, 778.0, 779.0, 778.0, 779.0, 780.0, 778.0, 777.0, 777.0, 776.0, 775.0, 775.0, 775.0, 776.0, 779.0, 780.0, 780.0, 780.0, 779.0, 778.0, 778.0, 778.0, 777.0, 779.0, 780.0, 779.0, 778.0, 779.0, 780.0, 780.0, 780.0, 779.0, 779.0, 778.0, 778.0, 779.0, 778.0, 779.0, 779.0, 779.0, 779.0, 779.0, 779.0, 781.0, 781.0, 782.0, 781.0, 779.0, 777.0, 775.0, 775.0, 776.0, 777.0, 778.0, 779.0, 779.0, 780.0, 780.0, 780.0, 780.0, 780.0, 780.0, 782.0, 782.0, 782.0, 781.0, 781.0, 780.0, 780.0, 779.0, 779.0, 780.0, 781.0, 780.0, 780.0, 780.0, 779.0, 780.0, 780.0, 779.0, 780.0, 780.0, 781.0, 781.0, 781.0, 781.0, 781.0, 780.0, 779.0, 780.0, 782.0, 781.0, 780.0, 780.0, 780.0, 781.0, 781.0, 780.0, 781.0, 780.0, 781.0, 780.0, 781.0, 781.0, 781.0, 782.0, 781.0, 782.0, 781.0, 782.0, 782.0, 782.0, 782.0, 781.0, 781.0, 781.0, 781.0, 781.0, 781.0, 782.0, 781.0, 782.0, 782.0, 781.0, 781.0, 781.0, 781.0, 781.0, 781.0, 781.0, 781.0, 781.0, 782.0, 782.0, 782.0, 782.0, 782.0, 782.0, 782.0],
      "WindowWidth": [1645.0, 1636.0, 1630.0, 1625.0, 1622.0, 1622.0, 1621.0, 1622.0, 1623.0, 1631.0, 1623.0, 1619.0, 1622.0, 1626.0, 1624.0, 1623.0, 1623.0, 1623.0, 1623.0, 1624.0, 1625.0, 1628.0, 1630.0, 1629.0, 1631.0, 1629.0, 1627.0, 1627.0, 1627.0, 1626.0, 1628.0, 1628.0, 1629.0, 1627.0, 1626.0, 1626.0, 1629.0, 1628.0, 1629.0, 1629.0, 1628.0, 1625.0, 1627.0, 1628.0, 1629.0, 1628.0, 1629.0, 1629.0, 1628.0, 1630.0, 1632.0, 1633.0, 1632.0, 1631.0, 1631.0, 1631.0, 1633.0, 1632.0, 1630.0, 1629.0, 1630.0, 1631.0, 1630.0, 1634.0, 1638.0, 1639.0, 1637.0, 1634.0, 1631.0, 1632.0, 1632.0, 1631.0, 1633.0, 1634.0, 1632.0, 1634.0, 1633.0, 1633.0, 1633.0, 1633.0, 1632.0, 1633.0, 1634.0, 1634.0, 1637.0, 1637.0, 1636.0, 1636.0, 1637.0, 1638.0, 1638.0, 1638.0, 1637.0, 1636.0, 1636.0, 1637.0, 1639.0, 1638.0, 1639.0, 1638.0, 1637.0, 1636.0, 1639.0, 1640.0, 1638.0, 1643.0, 1644.0, 1638.0, 1637.0, 1635.0, 1633.0, 1632.0, 1631.0, 1631.0, 1634.0, 1641.0, 1644.0, 1644.0, 1643.0, 1641.0, 1638.0, 1638.0, 1638.0, 1637.0, 1642.0, 1643.0, 1641.0, 1637.0, 1641.0, 1642.0, 1644.0, 1643.0, 1642.0, 1641.0, 1638.0, 1639.0, 1640.0, 1639.0, 1640.0, 1640.0, 1642.0, 1641.0, 1641.0, 1642.0, 1647.0, 1647.0, 1648.0, 1645.0, 1641.0, 1636.0, 1632.0, 1631.0, 1634.0, 1638.0, 1639.0, 1640.0, 1640.0, 1643.0, 1642.0, 1644.0, 1643.0, 1643.0, 1643.0, 1647.0, 1648.0, 1648.0, 1646.0, 1645.0, 1644.0, 1642.0, 1641.0, 1642.0, 1642.0, 1645.0, 1644.0, 1643.0, 1643.0, 1642.0, 1643.0, 1643.0, 1641.0, 1644.0, 1645.0, 1645.0, 1645.0, 1646.0, 1645.0, 1645.0, 1644.0, 1642.0, 1644.0, 1649.0, 1645.0, 1642.0, 1641.0, 1642.0, 1645.0, 1645.0, 1644.0, 1644.0, 1643.0, 1644.0, 1643.0, 1645.0, 1645.0, 1645.0, 1648.0, 1645.0, 1648.0, 1646.0, 1648.0, 1647.0, 1648.0, 1647.0, 1646.0, 1646.0, 1645.0, 1644.0, 1645.0, 1645.0, 1649.0, 1646.0, 1648.0, 1647.0, 1646.0, 1644.0, 1645.0, 1645.0, 1645.0, 1644.0, 1645.0, 1647.0, 1645.0, 1647.0, 1648.0, 1648.0, 1647.0, 1647.0, 1649.0, 1649.0]
    },
    "slices": {}
  }
}