{
  "AcquisitionMatrixPE": 68,
  "AcquisitionNumber": 1,
  "AcquisitionTime": "12:20:52.685000",
  "BandwidthPerPixelPhaseEncode": 31.289,
  "BaseResolution": 68,
  "CoilString": "C:HEA;HEP",
  "ConversionSoftware": "dcm2niix",
  "ConversionSoftwareVersion": "v1.0.20190902",
  "DerivedVendorReportedEchoSpacing": 0.000470002,
  "DeviceSerialNumber": "35450",
  "DwellTime": 3e-06,
  "EchoTime": 0.023,
  "EffectiveEchoSpacing": 0.000470002,
  "FlipAngle": 76,
  "ImageOrientationPatientDICOM": [1, 0, 0, 0, 0.988228, -0.152986],
  "ImageType": [
    "ORIGINAL",
    "PRIMARY",
    "M",
    "ND",
    "MOSAIC"
],
  "ImagingFrequency": 123.218,
  "InPlanePhaseEncodingDirectionDICOM": "COL",
  "InstitutionAddress": "Univeristy_Ave._197_Newark_North_East_US_07102-1814",
  "InstitutionName": "RUBIC",
  "InstitutionalDepartmentName": "Department",
  "MRAcquisitionType": "2D",
  "MagneticFieldStrength": 3,
  "Manufacturer": "Siemens",
  "ManufacturersModelName": "TrioTim",
  "Modality": "MR",
  "PartialFourier": 1,
  "PatientPosition": "HFS",
  "PercentPhaseFOV": 100,
  "PhaseEncodingDirection": "j-",
  "PhaseEncodingSteps": 68,
  "PhaseResolution": 1,
  "PixelBandwidth": 2451,
  "ProcedureStepDescription": "Krekelberg_David",
  "ProtocolName": "ep2d_bold_RestEPI_4",
  "PulseSequenceDetails": "%SiemensSeq%_ep2d_bold",
  "ReceiveCoilName": "HeadMatrix",
  "ReconMatrixPE": 68,
  "RepetitionTime": 2,
  "SAR": 0.229907,
  "ScanOptions": "FS",
  "ScanningSequence": "EP",
  "SequenceName": "_epfid2d1_68",
  "SequenceVariant": "SK",
  "SeriesDescription": "ep2d_bold_RestEPI_4",
  "SeriesNumber": 10,
  "ShimSetting": [1963, -666, -7514, 631, 37, -44, -413, -11],
  "SliceThickness": 2.5,
  "SliceTiming": [1.9525, 1.895, 1.84, 1.785, 1.7275, 1.6725, 1.6175, 1.5625, 1.505, 1.45, 1.395, 1.3375, 1.2825, 1.2275, 1.17, 1.115, 1.06, 1.005, 0.9475, 0.8925, 0.8375, 0.78, 0.725, 0.67, 0.6125, 0.5575, 0.5025, 0.445, 0.39, 0.335, 0.28, 0.2225, 0.1675, 0.1125, 0.055, 0],
  "SoftwareVersions": "syngo_MR_B19",
  "SpacingBetweenSlices": 3,
  "StationName": "MRC35450",
  "TaskName": "rest",
  "TotalReadoutTime": 0.0314901,
  "TxRefAmp": 478.846,
  "dcmmeta_affine": [
    [-3.0, 0.0, 0.0, 102.0],
    [0.0, 2.9646852016448975, -0.4589575231075287, -65.39607238769531],
    [0.0, 0.4589575231075287, 2.9646852016448975, -51.43436813354492],
    [0.0, 0.0, 0.0, 1.0]
],
  "dcmmeta_reorient_transform": [
    [0.0, -1.0, 0.0, 67.0],
    [1.0, 0.0, 0.0, 0.0],
    [0.0, 0.0, 1.0, 0.0],
    [0.0, 0.0, 0.0, 1.0]
],
  "dcmmeta_shape": [68, 68, 36, 240],
  "dcmmeta_slice_dim": 2,
  "dcmmeta_version": 0.6,
  "global": {
    "const": {
      "AcquisitionMatrix": [68, 0, 0, 68],
      "AngioFlag": "N",
      "BitsAllocated": 16,
      "BitsStored": 12,
      "Columns": 408,
      "EchoNumbers": 1,
      "EchoTime": 23.0,
      "EchoTrainLength": 1,
      "FlipAngle": 76.0,
      "HighBit": 11,
      "ImageOrientationPatient": [1.0, 0.0, 0.0, 0.0, 0.9882283809914, -0.1529858392241],
      "ImagePositionPatient": [-612.0, -637.23430676439, 57.338564836851],
      "ImageType": [
        "ORIGINAL",
        "PRIMARY",
        "M",
        "ND",
        "MOSAIC"
],
      "ImagedNucleus": "1H",
      "ImagingFrequency": 123.21846,
      "InPlanePhaseEncodingDirection": "COL",
      "MRAcquisitionType": "2D",
      "MagneticFieldStrength": 3.0,
      "Manufacturer": "SIEMENS",
      "ManufacturerModelName": "TrioTim",
      "Modality": "MR",
      "NumberOfAverages": 1.0,
      "NumberOfPhaseEncodingSteps": 68,
      "PercentPhaseFieldOfView": 100.0,
      "PercentSampling": 100.0,
      "PerformedProcedureStepStartTime": "112056.812000",
      "PhotometricInterpretation": "MONOCHROME2",
      "PixelBandwidth": 2451.0,
      "PixelRepresentation": 0,
      "PixelSpacing": [3.0, 3.0],
      "ProtocolName": "ep2d_bold_RestEPI_4",
      "RepetitionTime": 2000.0,
      "Rows": 408,
      "SAR": 0.22990693333829,
      "SamplesPerPixel": 1,
      "ScanOptions": "FS",
      "ScanningSequence": "EP",
      "SequenceName": "*epfid2d1_68",
      "SequenceVariant": "SK",
      "SeriesDescription": "ep2d_bold_RestEPI_4",
      "SeriesNumber": 10,
      "SeriesTime": "122119.828000",
      "SliceLocation": -40.82422810566,
      "SliceThickness": 2.5,
      "SmallestImagePixelValue": 0,
      "SoftwareVersions": "syngo MR B19",
      "SpacingBetweenSlices": 3.0000000229381,
      "SpecificCharacterSet": "ISO_IR 100",
      "StudyID": "1",
      "StudyTime": "112056.703000",
      "TransmitCoilName": "Body",
      "VariableFlipAngleFlag": "N",
      "WindowCenterWidthExplanation": "Algo1",
      "dBdt": 0.0},
    "slices": {}
  },
  "time": {
    "samples": {
      "AcquisitionNumber": [1, 2, 3, 4, 5, 6, 7, 8, 9, 10, 11, 12, 13, 14, 15, 16, 17, 18, 19, 20, 21, 22, 23, 24, 25, 26, 27, 28, 29, 30, 31, 32, 33, 34, 35, 36, 37, 38, 39, 40, 41, 42, 43, 44, 45, 46, 47, 48, 49, 50, 51, 52, 53, 54, 55, 56, 57, 58, 59, 60, 61, 62, 63, 64, 65, 66, 67, 68, 69, 70, 71, 72, 73, 74, 75, 76, 77, 78, 79, 80, 81, 82, 83, 84, 85, 86, 87, 88, 89, 90, 91, 92, 93, 94, 95, 96, 97, 98, 99, 100, 101, 102, 103, 104, 105, 106, 107, 108, 109, 110, 111, 112, 113, 114, 115, 116, 117, 118, 119, 120, 121, 122, 123, 124, 125, 126, 127, 128, 129, 130, 131, 132, 133, 134, 135, 136, 137, 138, 139, 140, 141, 142, 143, 144, 145, 146, 147, 148, 149, 150, 151, 152, 153, 154, 155, 156, 157, 158, 159, 160, 161, 162, 163, 164, 165, 166, 167, 168, 169, 170, 171, 172, 173, 174, 175, 176, 177, 178, 179, 180, 181, 182, 183, 184, 185, 186, 187, 188, 189, 190, 191, 192, 193, 194, 195, 196, 197, 198, 199, 200, 201, 202, 203, 204, 205, 206, 207, 208, 209, 210, 211, 212, 213, 214, 215, 216, 217, 218, 219, 220, 221, 222, 223, 224, 225, 226, 227, 228, 229, 230, 231, 232, 233, 234, 235, 236, 237, 238, 239, 240],
      "AcquisitionTime": ["122052.685000", "122054.692500", "122056.700000", "122058.707500", "122100.717500", "122102.725000", "122104.732500", "122106.740000", "122108.747500", "122110.757500", "122112.765000", "122114.772500", "122116.780000", "122118.787500", "122120.797500", "122122.805000", "122124.812500", "122126.820000", "122128.830000", "122130.837500", "122132.845000", "122134.852500", "122136.860000", "122138.870000", "122140.877500", "122142.885000", "122144.892500", "122146.900000", "122148.910000", "122150.917500", "122152.925000", "122154.932500", "122156.942500", "122158.950000", "122200.957500", "122202.965000", "122204.972500", "122206.982500", "122208.990000", "122210.997500", "122213.005000", "122215.012500", "122217.022500", "122219.030000", "122221.037500", "122223.045000", "122225.052500", "122227.062500", "122229.070000", "122231.077500", "122233.085000", "122235.095000", "122237.102500", "122239.110000", "122241.117500", "122243.125000", "122245.135000", "122247.142500", "122249.150000", "122251.157500", "122253.165000", "122255.175000", "122257.182500", "122259.190000", "122301.197500", "122303.207500", "122305.215000", "122307.222500", "122309.230000", "122311.237500", "122313.247500", "122315.255000", "122317.262500", "122319.270000", "122321.277500", "122323.287500", "122325.295000", "122327.302500", "122329.310000", "122331.320000", "122333.327500", "122335.335000", "122337.342500", "122339.350000", "122341.360000", "122343.367500", "122345.375000", "122347.382500", "122349.390000", "122351.400000", "122353.407500", "122355.415000", "122357.422500", "122359.430000", "122401.440000", "122403.447500", "122405.455000", "122407.462500", "122409.472500", "122411.480000", "122413.487500", "122415.495000", "122417.502500", "122419.512500", "122421.520000", "122423.527500", "122425.535000", "122427.542500", "122429.552500", "122431.560000", "122433.567500", "122435.575000", "122437.585000", "122439.592500", "122441.600000", "122443.607500", "122445.615000", "122447.625000", "122449.632500", "122451.640000", "122453.647500", "122455.655000", "122457.665000", "122459.672500", "122501.680000", "122503.687500", "122505.697500", "122507.705000", "122509.712500", "122511.720000", "122513.727500", "122515.737500", "122517.745000", "122519.752500", "122521.760000", "122523.767500", "122525.777500", "122527.785000", "122529.792500", "122531.800000", "122533.807500", "122535.817500", "122537.825000", "122539.832500", "122541.840000", "122543.850000", "122545.857500", "122547.865000", "122549.872500", "122551.880000", "122553.890000", "122555.897500", "122557.905000", "122559.912500", "122601.920000", "122603.930000", "122605.937500", "122607.945000", "122609.952500", "122611.962500", "122613.970000", "122615.977500", "122617.985000", "122619.992500", "122622.002500", "122624.010000", "122626.017500", "122628.025000", "122630.032500", "122632.042500", "122634.050000", "122636.057500", "122638.065000", "122640.075000", "122642.082500", "122644.090000", "122646.097500", "122648.105000", "122650.115000", "122652.122500", "122654.130000", "122656.137500", "122658.145000", "122700.155000", "122702.162500", "122704.170000", "122706.177500", "122708.187500", "122710.195000", "122712.202500", "122714.210000", "122716.217500", "122718.227500", "122720.235000", "122722.242500", "122724.250000", "122726.257500", "122728.267500", "122730.275000", "122732.282500", "122734.290000", "122736.297500", "122738.307500", "122740.315000", "122742.322500", "122744.330000", "122746.340000", "122748.347500", "122750.355000", "122752.362500", "122754.370000", "122756.380000", "122758.387500", "122800.395000", "122802.402500", "122804.410000", "122806.420000", "122808.427500", "122810.435000", "122812.442500", "122814.452500", "122816.460000", "122818.467500", "122820.475000", "122822.482500", "122824.492500", "122826.500000", "122828.507500", "122830.515000", "122832.522500", "122834.532500", "122836.540000", "122838.547500", "122840.555000", "122842.565000", "122844.572500", "122846.580000", "122848.587500", "122850.595000", "122852.605000"],
      "ContentTime": ["122119.843000", "122119.843000", "122119.843000", "122119.843000", "122119.843000", "122119.843000", "122119.843000", "122119.859000", "122119.859000", "122119.859000", "122119.859000", "122119.859000", "122119.859000", "122159.828000", "122159.828000", "122159.843000", "122159.843000", "122159.843000", "122159.843000", "122159.843000", "122159.843000", "122159.843000", "122159.859000", "122159.859000", "122159.859000", "122159.859000", "122159.859000", "122159.859000", "122159.859000", "122159.875000", "122159.875000", "122159.875000", "122159.875000", "122239.828000", "122239.828000", "122239.843000", "122239.843000", "122239.843000", "122239.843000", "122239.843000", "122239.843000", "122239.843000", "122239.859000", "122239.859000", "122239.859000", "122239.859000", "122239.859000", "122239.859000", "122239.859000", "122239.875000", "122239.875000", "122239.875000", "122239.875000", "122319.828000", "122319.828000", "122319.843000", "122319.843000", "122319.843000", "122319.843000", "122319.859000", "122319.859000", "122319.859000", "122319.859000", "122319.859000", "122319.859000", "122319.859000", "122319.875000", "122319.875000", "122319.875000", "122319.875000", "122319.875000", "122319.875000", "122319.875000", "122359.828000", "122359.828000", "122359.843000", "122359.843000", "122359.843000", "122359.843000", "122359.843000", "122359.843000", "122359.843000", "122359.843000", "122359.859000", "122359.859000", "122359.859000", "122359.859000", "122359.859000", "122359.859000", "122359.859000", "122359.875000", "122359.875000", "122359.875000", "122439.828000", "122439.828000", "122439.843000", "122439.843000", "122439.843000", "122439.843000", "122439.843000", "122439.843000", "122439.843000", "122439.859000", "122439.859000", "122439.859000", "122439.859000", "122439.859000", "122439.859000", "122439.859000", "122439.875000", "122439.875000", "122439.875000", "122439.875000", "122519.828000", "122519.828000", "122519.843000", "122519.843000", "122519.843000", "122519.843000", "122519.843000", "122519.843000", "122519.843000", "122519.859000", "122519.859000", "122519.859000", "122519.859000", "122519.859000", "122519.859000", "122519.859000", "122519.875000", "122519.875000", "122519.875000", "122519.875000", "122559.828000", "122559.828000", "122559.843000", "122559.843000", "122559.843000", "122559.843000", "122559.843000", "122559.843000", "122559.843000", "122559.859000", "122559.859000", "122559.859000", "122559.859000", "122559.859000", "122559.859000", "122559.859000", "122559.875000", "122559.875000", "122559.875000", "122559.875000", "122639.828000", "122639.828000", "122639.843000", "122639.843000", "122639.843000", "122639.843000", "122639.843000", "122639.843000", "122639.843000", "122639.859000", "122639.859000", "122639.859000", "122639.859000", "122639.859000", "122639.859000", "122639.859000", "122639.875000", "122639.875000", "122639.875000", "122639.875000", "122719.828000", "122719.843000", "122719.843000", "122719.843000", "122719.843000", "122719.843000", "122719.843000", "122719.843000", "122719.843000", "122719.859000", "122719.859000", "122719.859000", "122719.859000", "122719.859000", "122719.859000", "122719.859000", "122719.875000", "122719.875000", "122719.875000", "122719.875000", "122759.828000", "122759.843000", "122759.843000", "122759.843000", "122759.843000", "122759.843000", "122759.843000", "122759.843000", "122759.843000", "122759.859000", "122759.859000", "122759.859000", "122759.859000", "122759.859000", "122759.859000", "122759.859000", "122759.875000", "122759.875000", "122759.875000", "122759.875000", "122839.828000", "122839.828000", "122839.843000", "122839.843000", "122839.843000", "122839.843000", "122839.843000", "122839.843000", "122839.843000", "122839.859000", "122839.859000", "122839.859000", "122839.859000", "122839.859000", "122839.859000", "122839.875000", "122839.875000", "122839.875000", "122839.875000", "122839.875000", "122851.953000", "122851.953000", "122851.953000", "122851.953000", "122851.968000", "122851.968000", "122851.968000"],
      "InstanceCreationTime": ["122119.843000", "122119.843000", "122119.843000", "122119.843000", "122119.843000", "122119.843000", "122119.843000", "122119.859000", "122119.859000", "122119.859000", "122119.859000", "122119.859000", "122119.859000", "122159.828000", "122159.828000", "122159.843000", "122159.843000", "122159.843000", "122159.843000", "122159.843000", "122159.843000", "122159.843000", "122159.859000", "122159.859000", "122159.859000", "122159.859000", "122159.859000", "122159.859000", "122159.859000", "122159.875000", "122159.875000", "122159.875000", "122159.875000", "122239.828000", "122239.828000", "122239.843000", "122239.843000", "122239.843000", "122239.843000", "122239.843000", "122239.843000", "122239.843000", "122239.859000", "122239.859000", "122239.859000", "122239.859000", "122239.859000", "122239.859000", "122239.859000", "122239.875000", "122239.875000", "122239.875000", "122239.875000", "122319.828000", "122319.828000", "122319.843000", "122319.843000", "122319.843000", "122319.843000", "122319.859000", "122319.859000", "122319.859000", "122319.859000", "122319.859000", "122319.859000", "122319.859000", "122319.875000", "122319.875000", "122319.875000", "122319.875000", "122319.875000", "122319.875000", "122319.875000", "122359.828000", "122359.828000", "122359.843000", "122359.843000", "122359.843000", "122359.843000", "122359.843000", "122359.843000", "122359.843000", "122359.843000", "122359.859000", "122359.859000", "122359.859000", "122359.859000", "122359.859000", "122359.859000", "122359.859000", "122359.875000", "122359.875000", "122359.875000", "122439.828000", "122439.828000", "122439.843000", "122439.843000", "122439.843000", "122439.843000", "122439.843000", "122439.843000", "122439.843000", "122439.859000", "122439.859000", "122439.859000", "122439.859000", "122439.859000", "122439.859000", "122439.859000", "122439.875000", "122439.875000", "122439.875000", "122439.875000", "122519.828000", "122519.828000", "122519.843000", "122519.843000", "122519.843000", "122519.843000", "122519.843000", "122519.843000", "122519.843000", "122519.859000", "122519.859000", "122519.859000", "122519.859000", "122519.859000", "122519.859000", "122519.859000", "122519.875000", "122519.875000", "122519.875000", "122519.875000", "122559.828000", "122559.828000", "122559.843000", "122559.843000", "122559.843000", "122559.843000", "122559.843000", "122559.843000", "122559.843000", "122559.859000", "122559.859000", "122559.859000", "122559.859000", "122559.859000", "122559.859000", "122559.859000", "122559.875000", "122559.875000", "122559.875000", "122559.875000", "122639.828000", "122639.828000", "122639.843000", "122639.843000", "122639.843000", "122639.843000", "122639.843000", "122639.843000", "122639.843000", "122639.859000", "122639.859000", "122639.859000", "122639.859000", "122639.859000", "122639.859000", "122639.859000", "122639.875000", "122639.875000", "122639.875000", "122639.875000", "122719.828000", "122719.843000", "122719.843000", "122719.843000", "122719.843000", "122719.843000", "122719.843000", "122719.843000", "122719.843000", "122719.859000", "122719.859000", "122719.859000", "122719.859000", "122719.859000", "122719.859000", "122719.859000", "122719.875000", "122719.875000", "122719.875000", "122719.875000", "122759.828000", "122759.843000", "122759.843000", "122759.843000", "122759.843000", "122759.843000", "122759.843000", "122759.843000", "122759.843000", "122759.859000", "122759.859000", "122759.859000", "122759.859000", "122759.859000", "122759.859000", "122759.859000", "122759.875000", "122759.875000", "122759.875000", "122759.875000", "122839.828000", "122839.828000", "122839.843000", "122839.843000", "122839.843000", "122839.843000", "122839.843000", "122839.843000", "122839.843000", "122839.859000", "122839.859000", "122839.859000", "122839.859000", "122839.859000", "122839.859000", "122839.875000", "122839.875000", "122839.875000", "122839.875000", "122839.875000", "122851.953000", "122851.953000", "122851.953000", "122851.953000", "122851.968000", "122851.968000", "122851.968000"],
      "InstanceNumber": [1, 2, 3, 4, 5, 6, 7, 8, 9, 10, 11, 12, 13, 14, 15, 16, 17, 18, 19, 20, 21, 22, 23, 24, 25, 26, 27, 28, 29, 30, 31, 32, 33, 34, 35, 36, 37, 38, 39, 40, 41, 42, 43, 44, 45, 46, 47, 48, 49, 50, 51, 52, 53, 54, 55, 56, 57, 58, 59, 60, 61, 62, 63, 64, 65, 66, 67, 68, 69, 70, 71, 72, 73, 74, 75, 76, 77, 78, 79, 80, 81, 82, 83, 84, 85, 86, 87, 88, 89, 90, 91, 92, 93, 94, 95, 96, 97, 98, 99, 100, 101, 102, 103, 104, 105, 106, 107, 108, 109, 110, 111, 112, 113, 114, 115, 116, 117, 118, 119, 120, 121, 122, 123, 124, 125, 126, 127, 128, 129, 130, 131, 132, 133, 134, 135, 136, 137, 138, 139, 140, 141, 142, 143, 144, 145, 146, 147, 148, 149, 150, 151, 152, 153, 154, 155, 156, 157, 158, 159, 160, 161, 162, 163, 164, 165, 166, 167, 168, 169, 170, 171, 172, 173, 174, 175, 176, 177, 178, 179, 180, 181, 182, 183, 184, 185, 186, 187, 188, 189, 190, 191, 192, 193, 194, 195, 196, 197, 198, 199, 200, 201, 202, 203, 204, 205, 206, 207, 208, 209, 210, 211, 212, 213, 214, 215, 216, 217, 218, 219, 220, 221, 222, 223, 224, 225, 226, 227, 228, 229, 230, 231, 232, 233, 234, 235, 236, 237, 238, 239, 240],
      "LargestImagePixelValue": [1994, 1896, 1827, 1822, 1843, 1793, 1800, 1845, 1814, 1838, 1831, 1798, 1815, 1822, 1827, 1845, 1817, 1825, 1800, 1811, 1835, 1820, 1841, 1833, 1797, 1811, 1784, 1779, 1823, 1796, 1823, 1803, 1814, 1799, 1772, 1780, 1794, 1795, 1782, 1773, 1800, 1828, 1819, 1807, 1798, 1814, 1800, 1811, 1821, 1830, 1820, 1806, 1796, 1806, 1838, 1828, 1820, 1817, 1852, 1793, 1813, 1835, 1848, 1805, 1820, 1811, 1830, 1826, 1848, 1836, 1790, 1845, 1808, 1767, 1738, 1759, 1789, 1767, 1827, 1840, 1864, 1845, 1790, 1814, 1816, 1836, 1823, 1778, 1806, 1833, 1807, 1811, 1803, 1810, 1801, 1781, 1784, 1818, 1768, 1805, 1804, 1784, 1824, 1847, 1808, 1805, 1831, 1800, 1823, 1815, 1776, 1821, 1840, 1811, 1807, 1812, 1798, 1784, 1775, 1822, 1850, 1840, 1782, 1789, 1795, 1783, 1827, 1816, 1796, 1852, 1822, 1787, 1808, 1815, 1797, 1827, 1813, 1813, 1845, 1797, 1825, 1796, 1848, 1797, 1855, 1811, 1848, 1808, 1844, 1820, 1832, 1829, 1857, 1863, 1878, 1822, 1866, 1841, 1818, 1845, 1854, 1838, 1874, 1816, 1821, 1821, 1828, 1837, 1820, 1837, 1831, 1830, 1831, 1834, 1837, 1842, 1838, 1821, 1837, 1831, 1835, 1827, 1831, 1832, 1831, 1833, 1877, 1854, 1842, 1863, 1834, 1836, 1849, 1833, 1874, 1898, 1828, 1866, 1824, 1822, 1858, 1857, 1822, 1829, 1872, 1865, 1838, 1859, 1864, 1843, 1856, 1843, 1866, 1870, 1838, 1855, 1844, 1824, 1844, 1881, 1846, 1844, 1840, 1820, 1865, 1864, 1858, 1857, 1849, 1847, 1858, 1847, 1844, 1815, 1871, 1866, 1859, 1852, 1867, 1848],
      "WindowCenter": [772.0, 767.0, 766.0, 766.0, 766.0, 764.0, 764.0, 763.0, 762.0, 761.0, 762.0, 762.0, 762.0, 763.0, 763.0, 763.0, 763.0, 763.0, 762.0, 762.0, 763.0, 763.0, 762.0, 763.0, 764.0, 765.0, 764.0, 764.0, 765.0, 764.0, 764.0, 764.0, 764.0, 764.0, 764.0, 765.0, 764.0, 762.0, 762.0, 764.0, 764.0, 765.0, 766.0, 766.0, 765.0, 764.0, 764.0, 764.0, 764.0, 764.0, 764.0, 765.0, 765.0, 764.0, 765.0, 765.0, 765.0, 765.0, 766.0, 766.0, 766.0, 765.0, 765.0, 765.0, 764.0, 764.0, 764.0, 764.0, 764.0, 764.0, 765.0, 766.0, 767.0, 767.0, 765.0, 764.0, 763.0, 764.0, 765.0, 765.0, 764.0, 764.0, 764.0, 765.0, 765.0, 766.0, 767.0, 766.0, 766.0, 766.0, 765.0, 766.0, 767.0, 767.0, 766.0, 765.0, 765.0, 766.0, 767.0, 768.0, 767.0, 766.0, 765.0, 765.0, 765.0, 765.0, 765.0, 765.0, 765.0, 764.0, 764.0, 765.0, 765.0, 767.0, 768.0, 768.0, 766.0, 766.0, 767.0, 767.0, 768.0, 768.0, 768.0, 767.0, 767.0, 766.0, 767.0, 767.0, 768.0, 769.0, 767.0, 765.0, 765.0, 764.0, 764.0, 763.0, 763.0, 764.0, 765.0, 765.0, 766.0, 768.0, 769.0, 767.0, 769.0, 769.0, 770.0, 768.0, 768.0, 767.0, 764.0, 762.0, 763.0, 764.0, 766.0, 768.0, 767.0, 767.0, 767.0, 767.0, 768.0, 769.0, 770.0, 769.0, 769.0, 769.0, 769.0, 769.0, 767.0, 767.0, 766.0, 767.0, 769.0, 770.0, 770.0, 768.0, 768.0, 768.0, 768.0, 767.0, 767.0, 767.0, 768.0, 768.0, 767.0, 768.0, 768.0, 768.0, 768.0, 768.0, 769.0, 769.0, 769.0, 769.0, 769.0, 770.0, 771.0, 769.0, 768.0, 768.0, 768.0, 767.0, 768.0, 768.0, 769.0, 769.0, 769.0, 770.0, 769.0, 769.0, 769.0, 769.0, 770.0, 770.0, 769.0, 769.0, 769.0, 769.0, 769.0, 770.0, 770.0, 770.0, 770.0, 770.0, 772.0, 772.0, 770.0, 770.0, 769.0, 769.0, 768.0, 768.0, 768.0, 768.0, 768.0, 769.0, 769.0, 770.0, 771.0, 770.0],
      "WindowWidth": [1632.0, 1618.0, 1613.0, 1614.0, 1614.0, 1610.0, 1610.0, 1608.0, 1604.0, 1603.0, 1606.0, 1605.0, 1606.0, 1607.0, 1608.0, 1608.0, 1608.0, 1607.0, 1606.0, 1606.0, 1606.0, 1607.0, 1606.0, 1607.0, 1611.0, 1612.0, 1611.0, 1611.0, 1611.0, 1610.0, 1611.0, 1609.0, 1610.0, 1610.0, 1611.0, 1612.0, 1610.0, 1605.0, 1605.0, 1608.0, 1610.0, 1612.0, 1615.0, 1614.0, 1611.0, 1610.0, 1610.0, 1611.0, 1610.0, 1610.0, 1610.0, 1611.0, 1612.0, 1610.0, 1610.0, 1611.0, 1613.0, 1612.0, 1614.0, 1615.0, 1615.0, 1613.0, 1612.0, 1612.0, 1609.0, 1608.0, 1609.0, 1609.0, 1609.0, 1609.0, 1612.0, 1616.0, 1616.0, 1617.0, 1613.0, 1610.0, 1608.0, 1609.0, 1612.0, 1611.0, 1610.0, 1611.0, 1610.0, 1612.0, 1611.0, 1614.0, 1618.0, 1615.0, 1614.0, 1613.0, 1612.0, 1614.0, 1617.0, 1616.0, 1613.0, 1612.0, 1611.0, 1615.0, 1616.0, 1620.0, 1618.0, 1615.0, 1612.0, 1611.0, 1611.0, 1611.0, 1611.0, 1612.0, 1611.0, 1611.0, 1610.0, 1613.0, 1613.0, 1618.0, 1621.0, 1620.0, 1614.0, 1614.0, 1616.0, 1617.0, 1619.0, 1620.0, 1619.0, 1616.0, 1616.0, 1614.0, 1616.0, 1617.0, 1621.0, 1623.0, 1617.0, 1613.0, 1611.0, 1608.0, 1609.0, 1608.0, 1607.0, 1609.0, 1611.0, 1613.0, 1616.0, 1619.0, 1620.0, 1617.0, 1624.0, 1624.0, 1624.0, 1620.0, 1620.0, 1615.0, 1609.0, 1604.0, 1608.0, 1610.0, 1616.0, 1619.0, 1617.0, 1616.0, 1618.0, 1618.0, 1620.0, 1622.0, 1624.0, 1623.0, 1623.0, 1622.0, 1621.0, 1622.0, 1618.0, 1617.0, 1616.0, 1617.0, 1622.0, 1624.0, 1624.0, 1620.0, 1619.0, 1619.0, 1619.0, 1618.0, 1617.0, 1618.0, 1620.0, 1619.0, 1618.0, 1619.0, 1620.0, 1619.0, 1619.0, 1621.0, 1622.0, 1621.0, 1621.0, 1623.0, 1622.0, 1625.0, 1626.0, 1622.0, 1620.0, 1618.0, 1618.0, 1618.0, 1619.0, 1619.0, 1621.0, 1622.0, 1623.0, 1623.0, 1623.0, 1623.0, 1623.0, 1622.0, 1623.0, 1625.0, 1622.0, 1622.0, 1623.0, 1622.0, 1621.0, 1623.0, 1624.0, 1624.0, 1625.0, 1625.0, 1629.0, 1628.0, 1625.0, 1623.0, 1622.0, 1621.0, 1620.0, 1620.0, 1618.0, 1618.0, 1621.0, 1621.0, 1623.0, 1625.0, 1625.0, 1623.0]
    },
    "slices": {}
  }
}