{
  "aor": 0.0038302092050209206,
  "aqi": 0.015330181338912134,
  "bids_meta": {
    "AcquisitionMatrixPE": 68,
    "AcquisitionNumber": 1,
    "AcquisitionTime": "11:11:56.727500",
    "BandwidthPerPixelPhaseEncode": 31.289,
    "BaseResolution": 68,
    "CogAtlasID": "TODO",
    "CoilString": "C:HEA;HEP",
    "ConversionSoftware": "dcm2niix",
    "ConversionSoftwareVersion": "v1.0.20190902",
    "DerivedVendorReportedEchoSpacing": 0.000470002,
    "DeviceSerialNumber": "35450",
    "DwellTime": 3e-06,
    "EchoTime": 0.023,
    "EffectiveEchoSpacing": 0.000470002,
    "FlipAngle": 76,
    "ImageOrientationPatientDICOM": [
      1,
      0,
      0,
      0,
      0.996917,
      -0.0784591
    ],
    "ImageType": [
      "ORIGINAL",
      "PRIMARY",
      "M",
      "ND",
      "MOSAIC"
    ],
    "ImagingFrequency": 123.218,
    "InPlanePhaseEncodingDirectionDICOM": "COL",
    "InstitutionAddress": "Univeristy_Ave._197_Newark_North_East_US_07102-1814",
    "InstitutionName": "RUBIC",
    "InstitutionalDepartmentName": "Department",
    "MRAcquisitionType": "2D",
    "MagneticFieldStrength": 3,
    "Manufacturer": "Siemens",
    "ManufacturersModelName": "TrioTim",
    "Modality": "MR",
    "PartialFourier": 1,
    "PatientPosition": "HFS",
    "PercentPhaseFOV": 100,
    "PhaseEncodingDirection": "j-",
    "PhaseEncodingSteps": 68,
    "PhaseResolution": 1,
    "PixelBandwidth": 2451,
    "ProcedureStepDescription": "Krekelberg_David",
    "ProtocolName": "ep2d_bold_RestEPI_2",
    "PulseSequenceDetails": "%SiemensSeq%_ep2d_bold",
    "ReceiveCoilName": "HeadMatrix",
    "ReconMatrixPE": 68,
    "RepetitionTime": 2,
    "SAR": 0.176971,
    "ScanOptions": "FS",
    "ScanningSequence": "EP",
    "SequenceName": "_epfid2d1_68",
    "SequenceVariant": "SK",
    "SeriesDescription": "ep2d_bold_RestEPI_2",
    "SeriesNumber": 9,
    "ShimSetting": [
      1971,
      -712,
      -7580,
      812,
      125,
      -193,
      -16,
      -175
    ],
    "SliceThickness": 2.5,
    "SliceTiming": [
      1.9525,
      1.895,
      1.84,
      1.785,
      1.73,
      1.6725,
      1.6175,
      1.5625,
      1.505,
      1.45,
      1.395,
      1.3375,
      1.2825,
      1.2275,
      1.1725,
      1.115,
      1.06,
      1.005,
      0.9475,
      0.8925,
      0.8375,
      0.78,
      0.725,
      0.67,
      0.6125,
      0.5575,
      0.5025,
      0.4475,
      0.39,
      0.335,
      0.28,
      0.2225,
      0.1675,
      0.1125,
      0.055,
      0
    ],
    "SoftwareVersions": "syngo_MR_B19",
    "SpacingBetweenSlices": 3,
    "StationName": "MRC35450",
    "TaskName": "rest",
    "TotalReadoutTime": 0.0314901,
    "TxRefAmp": 334.927,
    "dataset": "<unset>",
    "dcmmeta_affine": [
      [
        -3.0,
        0.0,
        0.0,
        107.4237289428711
      ],
      [
        0.0,
        2.9907519817352295,
        -0.23537729680538177,
        -72.20282745361328
      ],
      [
        0.0,
        0.23537728190422058,
        2.9907519817352295,
        -49.258155822753906
      ],
      [
        0.0,
        0.0,
        0.0,
        1.0
      ]
    ],
    "dcmmeta_reorient_transform": [
      [
        0.0,
        -1.0,
        0.0,
        67.0
      ],
      [
        1.0,
        0.0,
        0.0,
        0.0
      ],
      [
        0.0,
        0.0,
        1.0,
        0.0
      ],
      [
        0.0,
        0.0,
        0.0,
        1.0
      ]
    ],
    "dcmmeta_shape": [
      68,
      68,
      36,
      240
    ],
    "dcmmeta_slice_dim": 2,
    "dcmmeta_version": 0.6,
    "global": {
      "const": {
        "AcquisitionMatrix": [
          68,
          0,
          0,
          68
        ],
        "AngioFlag": "N",
        "BitsAllocated": 16,
        "BitsStored": 12,
        "Columns": 408,
        "EchoNumbers": 1,
        "EchoTime": 23.0,
        "EchoTrainLength": 1,
        "FlipAngle": 76.0,
        "HighBit": 11,
        "ImageOrientationPatient": [
          1.0,
          0.0,
          0.0,
          0.0,
          0.99691733371613,
          -0.0784590959439
        ],
        "ImagePositionPatient": [
          -617.42372894287,
          -636.60539355532,
          6.526263134894
        ],
        "ImageType": [
          "ORIGINAL",
          "PRIMARY",
          "M",
          "ND",
          "MOSAIC"
        ],
        "ImagedNucleus": "1H",
        "ImagingFrequency": 123.218479,
        "InPlanePhaseEncodingDirection": "COL",
        "MRAcquisitionType": "2D",
        "MagneticFieldStrength": 3.0,
        "Manufacturer": "SIEMENS",
        "ManufacturerModelName": "TrioTim",
        "Modality": "MR",
        "NumberOfAverages": 1.0,
        "NumberOfPhaseEncodingSteps": 68,
        "PercentPhaseFieldOfView": 100.0,
        "PercentSampling": 100.0,
        "PerformedProcedureStepStartTime": "101757.796000",
        "PhotometricInterpretation": "MONOCHROME2",
        "PixelBandwidth": 2451.0,
        "PixelRepresentation": 0,
        "PixelSpacing": [
          3.0,
          3.0
        ],
        "ProtocolName": "ep2d_bold_RestEPI_2",
        "RepetitionTime": 2000.0,
        "Rows": 408,
        "SAR": 0.17697147421409,
        "SamplesPerPixel": 1,
        "ScanOptions": "FS",
        "ScanningSequence": "EP",
        "SequenceName": "*epfid2d1_68",
        "SequenceVariant": "SK",
        "SeriesDescription": "ep2d_bold_RestEPI_2",
        "SeriesNumber": 9,
        "SeriesTime": "111240.125000",
        "SliceLocation": -43.441338807783,
        "SliceThickness": 2.5,
        "SmallestImagePixelValue": 0,
        "SoftwareVersions": "syngo MR B19",
        "SpacingBetweenSlices": 3.0000000822465,
        "SpecificCharacterSet": "ISO_IR 100",
        "StudyID": "1",
        "StudyTime": "101757.687000",
        "TransmitCoilName": "Body",
        "VariableFlipAngleFlag": "N",
        "WindowCenterWidthExplanation": "Algo1",
        "dBdt": 0.0
      },
      "slices": {}
    },
    "modality": "bold",
    "run_id": 2,
    "subject_id": "225",
    "task_id": "rest",
    "time": {
      "samples": {
        "AcquisitionNumber": [
          1,
          2,
          3,
          4,
          5,
          6,
          7,
          8,
          9,
          10,
          11,
          12,
          13,
          14,
          15,
          16,
          17,
          18,
          19,
          20,
          21,
          22,
          23,
          24,
          25,
          26,
          27,
          28,
          29,
          30,
          31,
          32,
          33,
          34,
          35,
          36,
          37,
          38,
          39,
          40,
          41,
          42,
          43,
          44,
          45,
          46,
          47,
          48,
          49,
          50,
          51,
          52,
          53,
          54,
          55,
          56,
          57,
          58,
          59,
          60,
          61,
          62,
          63,
          64,
          65,
          66,
          67,
          68,
          69,
          70,
          71,
          72,
          73,
          74,
          75,
          76,
          77,
          78,
          79,
          80,
          81,
          82,
          83,
          84,
          85,
          86,
          87,
          88,
          89,
          90,
          91,
          92,
          93,
          94,
          95,
          96,
          97,
          98,
          99,
          100,
          101,
          102,
          103,
          104,
          105,
          106,
          107,
          108,
          109,
          110,
          111,
          112,
          113,
          114,
          115,
          116,
          117,
          118,
          119,
          120,
          121,
          122,
          123,
          124,
          125,
          126,
          127,
          128,
          129,
          130,
          131,
          132,
          133,
          134,
          135,
          136,
          137,
          138,
          139,
          140,
          141,
          142,
          143,
          144,
          145,
          146,
          147,
          148,
          149,
          150,
          151,
          152,
          153,
          154,
          155,
          156,
          157,
          158,
          159,
          160,
          161,
          162,
          163,
          164,
          165,
          166,
          167,
          168,
          169,
          170,
          171,
          172,
          173,
          174,
          175,
          176,
          177,
          178,
          179,
          180,
          181,
          182,
          183,
          184,
          185,
          186,
          187,
          188,
          189,
          190,
          191,
          192,
          193,
          194,
          195,
          196,
          197,
          198,
          199,
          200,
          201,
          202,
          203,
          204,
          205,
          206,
          207,
          208,
          209,
          210,
          211,
          212,
          213,
          214,
          215,
          216,
          217,
          218,
          219,
          220,
          221,
          222,
          223,
          224,
          225,
          226,
          227,
          228,
          229,
          230,
          231,
          232,
          233,
          234,
          235,
          236,
          237,
          238,
          239,
          240
        ],
        "AcquisitionTime": [
          "111156.727500",
          "111158.735000",
          "111200.742500",
          "111202.750000",
          "111204.760000",
          "111206.767500",
          "111208.775000",
          "111210.782500",
          "111212.790000",
          "111214.800000",
          "111216.807500",
          "111218.815000",
          "111220.822500",
          "111222.832500",
          "111224.840000",
          "111226.847500",
          "111228.855000",
          "111230.862500",
          "111232.872500",
          "111234.880000",
          "111236.887500",
          "111238.895000",
          "111240.902500",
          "111242.912500",
          "111244.920000",
          "111246.927500",
          "111248.935000",
          "111250.945000",
          "111252.952500",
          "111254.960000",
          "111256.967500",
          "111258.975000",
          "111300.985000",
          "111302.992500",
          "111305.000000",
          "111307.007500",
          "111309.015000",
          "111311.025000",
          "111313.032500",
          "111315.040000",
          "111317.047500",
          "111319.057500",
          "111321.065000",
          "111323.072500",
          "111325.080000",
          "111327.087500",
          "111329.097500",
          "111331.105000",
          "111333.112500",
          "111335.120000",
          "111337.127500",
          "111339.137500",
          "111341.145000",
          "111343.152500",
          "111345.160000",
          "111347.170000",
          "111349.177500",
          "111351.185000",
          "111353.192500",
          "111355.200000",
          "111357.210000",
          "111359.217500",
          "111401.225000",
          "111403.232500",
          "111405.240000",
          "111407.250000",
          "111409.257500",
          "111411.265000",
          "111413.272500",
          "111415.280000",
          "111417.290000",
          "111419.297500",
          "111421.305000",
          "111423.312500",
          "111425.322500",
          "111427.330000",
          "111429.337500",
          "111431.345000",
          "111433.352500",
          "111435.362500",
          "111437.370000",
          "111439.377500",
          "111441.385000",
          "111443.392500",
          "111445.402500",
          "111447.410000",
          "111449.417500",
          "111451.425000",
          "111453.435000",
          "111455.442500",
          "111457.450000",
          "111459.457500",
          "111501.465000",
          "111503.475000",
          "111505.482500",
          "111507.490000",
          "111509.497500",
          "111511.505000",
          "111513.515000",
          "111515.522500",
          "111517.530000",
          "111519.537500",
          "111521.547500",
          "111523.555000",
          "111525.562500",
          "111527.570000",
          "111529.577500",
          "111531.587500",
          "111533.595000",
          "111535.602500",
          "111537.610000",
          "111539.617500",
          "111541.627500",
          "111543.635000",
          "111545.642500",
          "111547.650000",
          "111549.657500",
          "111551.667500",
          "111553.675000",
          "111555.682500",
          "111557.690000",
          "111559.700000",
          "111601.707500",
          "111603.715000",
          "111605.722500",
          "111607.730000",
          "111609.740000",
          "111611.747500",
          "111613.755000",
          "111615.762500",
          "111617.770000",
          "111619.780000",
          "111621.787500",
          "111623.795000",
          "111625.802500",
          "111627.812500",
          "111629.820000",
          "111631.827500",
          "111633.835000",
          "111635.842500",
          "111637.852500",
          "111639.860000",
          "111641.867500",
          "111643.875000",
          "111645.882500",
          "111647.892500",
          "111649.900000",
          "111651.907500",
          "111653.915000",
          "111655.925000",
          "111657.932500",
          "111659.940000",
          "111701.947500",
          "111703.955000",
          "111705.965000",
          "111707.972500",
          "111709.980000",
          "111711.987500",
          "111713.995000",
          "111716.005000",
          "111718.012500",
          "111720.020000",
          "111722.027500",
          "111724.035000",
          "111726.045000",
          "111728.052500",
          "111730.060000",
          "111732.067500",
          "111734.077500",
          "111736.085000",
          "111738.092500",
          "111740.100000",
          "111742.107500",
          "111744.117500",
          "111746.125000",
          "111748.132500",
          "111750.140000",
          "111752.147500",
          "111754.157500",
          "111756.165000",
          "111758.172500",
          "111800.180000",
          "111802.190000",
          "111804.197500",
          "111806.205000",
          "111808.212500",
          "111810.220000",
          "111812.230000",
          "111814.237500",
          "111816.245000",
          "111818.252500",
          "111820.260000",
          "111822.270000",
          "111824.277500",
          "111826.285000",
          "111828.292500",
          "111830.302500",
          "111832.310000",
          "111834.317500",
          "111836.325000",
          "111838.332500",
          "111840.342500",
          "111842.350000",
          "111844.357500",
          "111846.365000",
          "111848.372500",
          "111850.382500",
          "111852.390000",
          "111854.397500",
          "111856.405000",
          "111858.412500",
          "111900.422500",
          "111902.430000",
          "111904.437500",
          "111906.445000",
          "111908.455000",
          "111910.462500",
          "111912.470000",
          "111914.477500",
          "111916.485000",
          "111918.495000",
          "111920.502500",
          "111922.510000",
          "111924.517500",
          "111926.525000",
          "111928.535000",
          "111930.542500",
          "111932.550000",
          "111934.557500",
          "111936.567500",
          "111938.575000",
          "111940.582500",
          "111942.590000",
          "111944.597500",
          "111946.607500",
          "111948.615000",
          "111950.622500",
          "111952.630000",
          "111954.637500",
          "111956.647500"
        ],
        "ContentTime": [
          "111240.125000",
          "111240.140000",
          "111240.140000",
          "111240.140000",
          "111240.140000",
          "111240.140000",
          "111240.140000",
          "111240.156000",
          "111240.156000",
          "111240.156000",
          "111240.156000",
          "111240.156000",
          "111240.156000",
          "111240.156000",
          "111240.171000",
          "111240.171000",
          "111240.171000",
          "111240.171000",
          "111240.171000",
          "111240.171000",
          "111240.171000",
          "111320.125000",
          "111320.125000",
          "111320.125000",
          "111320.140000",
          "111320.140000",
          "111320.140000",
          "111320.140000",
          "111320.140000",
          "111320.140000",
          "111320.140000",
          "111320.156000",
          "111320.156000",
          "111320.156000",
          "111320.156000",
          "111320.156000",
          "111320.156000",
          "111320.156000",
          "111320.171000",
          "111320.171000",
          "111320.171000",
          "111400.125000",
          "111400.125000",
          "111400.125000",
          "111400.140000",
          "111400.140000",
          "111400.140000",
          "111400.140000",
          "111400.140000",
          "111400.156000",
          "111400.156000",
          "111400.156000",
          "111400.156000",
          "111400.156000",
          "111400.156000",
          "111400.156000",
          "111400.171000",
          "111400.171000",
          "111400.171000",
          "111400.171000",
          "111400.171000",
          "111440.125000",
          "111440.125000",
          "111440.125000",
          "111440.140000",
          "111440.140000",
          "111440.140000",
          "111440.140000",
          "111440.140000",
          "111440.140000",
          "111440.140000",
          "111440.140000",
          "111440.156000",
          "111440.156000",
          "111440.156000",
          "111440.156000",
          "111440.156000",
          "111440.171000",
          "111440.171000",
          "111440.171000",
          "111440.171000",
          "111520.125000",
          "111520.140000",
          "111520.140000",
          "111520.140000",
          "111520.140000",
          "111520.140000",
          "111520.140000",
          "111520.140000",
          "111520.140000",
          "111520.156000",
          "111520.156000",
          "111520.156000",
          "111520.156000",
          "111520.156000",
          "111520.156000",
          "111520.156000",
          "111520.171000",
          "111520.171000",
          "111520.171000",
          "111520.171000",
          "111540.125000",
          "111540.125000",
          "111540.125000",
          "111540.140000",
          "111540.140000",
          "111540.140000",
          "111540.140000",
          "111540.140000",
          "111540.140000",
          "111540.156000",
          "111540.156000",
          "111620.125000",
          "111620.125000",
          "111620.125000",
          "111620.140000",
          "111620.140000",
          "111620.140000",
          "111620.140000",
          "111620.140000",
          "111620.140000",
          "111620.140000",
          "111620.140000",
          "111620.156000",
          "111620.156000",
          "111620.156000",
          "111620.156000",
          "111620.156000",
          "111620.156000",
          "111620.156000",
          "111620.171000",
          "111620.171000",
          "111700.125000",
          "111700.125000",
          "111700.125000",
          "111700.140000",
          "111700.140000",
          "111700.140000",
          "111700.140000",
          "111700.140000",
          "111700.140000",
          "111700.140000",
          "111700.140000",
          "111700.156000",
          "111700.156000",
          "111700.156000",
          "111700.156000",
          "111700.156000",
          "111700.156000",
          "111700.156000",
          "111700.171000",
          "111700.171000",
          "111740.125000",
          "111740.125000",
          "111740.125000",
          "111740.140000",
          "111740.140000",
          "111740.140000",
          "111740.140000",
          "111740.140000",
          "111740.140000",
          "111740.140000",
          "111740.156000",
          "111740.156000",
          "111740.156000",
          "111740.156000",
          "111740.156000",
          "111740.156000",
          "111740.171000",
          "111740.171000",
          "111740.171000",
          "111740.171000",
          "111820.125000",
          "111820.125000",
          "111820.125000",
          "111820.140000",
          "111820.140000",
          "111820.140000",
          "111820.140000",
          "111820.140000",
          "111820.140000",
          "111820.140000",
          "111820.156000",
          "111820.156000",
          "111820.156000",
          "111820.156000",
          "111820.156000",
          "111820.156000",
          "111820.156000",
          "111820.156000",
          "111820.171000",
          "111820.171000",
          "111900.125000",
          "111900.125000",
          "111900.125000",
          "111900.140000",
          "111900.140000",
          "111900.140000",
          "111900.140000",
          "111900.140000",
          "111900.140000",
          "111900.140000",
          "111900.156000",
          "111900.156000",
          "111900.156000",
          "111900.156000",
          "111900.156000",
          "111900.156000",
          "111900.156000",
          "111900.156000",
          "111900.171000",
          "111900.171000",
          "111940.125000",
          "111940.125000",
          "111940.125000",
          "111940.140000",
          "111940.140000",
          "111940.140000",
          "111940.140000",
          "111940.140000",
          "111940.140000",
          "111940.140000",
          "111940.156000",
          "111940.156000",
          "111940.156000",
          "111940.156000",
          "111940.156000",
          "111940.156000",
          "111940.156000",
          "111940.156000",
          "111940.171000",
          "111940.171000",
          "111956.109000",
          "111956.125000",
          "111956.125000",
          "111956.125000",
          "111956.125000",
          "111956.125000",
          "111956.125000",
          "111956.125000"
        ],
        "InstanceCreationTime": [
          "111240.125000",
          "111240.140000",
          "111240.140000",
          "111240.140000",
          "111240.140000",
          "111240.140000",
          "111240.140000",
          "111240.156000",
          "111240.156000",
          "111240.156000",
          "111240.156000",
          "111240.156000",
          "111240.156000",
          "111240.156000",
          "111240.171000",
          "111240.171000",
          "111240.171000",
          "111240.171000",
          "111240.171000",
          "111240.171000",
          "111240.171000",
          "111320.125000",
          "111320.125000",
          "111320.125000",
          "111320.140000",
          "111320.140000",
          "111320.140000",
          "111320.140000",
          "111320.140000",
          "111320.140000",
          "111320.140000",
          "111320.156000",
          "111320.156000",
          "111320.156000",
          "111320.156000",
          "111320.156000",
          "111320.156000",
          "111320.156000",
          "111320.171000",
          "111320.171000",
          "111320.171000",
          "111400.125000",
          "111400.125000",
          "111400.125000",
          "111400.140000",
          "111400.140000",
          "111400.140000",
          "111400.140000",
          "111400.140000",
          "111400.156000",
          "111400.156000",
          "111400.156000",
          "111400.156000",
          "111400.156000",
          "111400.156000",
          "111400.156000",
          "111400.171000",
          "111400.171000",
          "111400.171000",
          "111400.171000",
          "111400.171000",
          "111440.125000",
          "111440.125000",
          "111440.125000",
          "111440.140000",
          "111440.140000",
          "111440.140000",
          "111440.140000",
          "111440.140000",
          "111440.140000",
          "111440.140000",
          "111440.140000",
          "111440.156000",
          "111440.156000",
          "111440.156000",
          "111440.156000",
          "111440.156000",
          "111440.171000",
          "111440.171000",
          "111440.171000",
          "111440.171000",
          "111520.125000",
          "111520.140000",
          "111520.140000",
          "111520.140000",
          "111520.140000",
          "111520.140000",
          "111520.140000",
          "111520.140000",
          "111520.140000",
          "111520.156000",
          "111520.156000",
          "111520.156000",
          "111520.156000",
          "111520.156000",
          "111520.156000",
          "111520.156000",
          "111520.171000",
          "111520.171000",
          "111520.171000",
          "111520.171000",
          "111540.125000",
          "111540.125000",
          "111540.125000",
          "111540.140000",
          "111540.140000",
          "111540.140000",
          "111540.140000",
          "111540.140000",
          "111540.140000",
          "111540.156000",
          "111540.156000",
          "111620.125000",
          "111620.125000",
          "111620.125000",
          "111620.140000",
          "111620.140000",
          "111620.140000",
          "111620.140000",
          "111620.140000",
          "111620.140000",
          "111620.140000",
          "111620.140000",
          "111620.156000",
          "111620.156000",
          "111620.156000",
          "111620.156000",
          "111620.156000",
          "111620.156000",
          "111620.156000",
          "111620.171000",
          "111620.171000",
          "111700.125000",
          "111700.125000",
          "111700.125000",
          "111700.140000",
          "111700.140000",
          "111700.140000",
          "111700.140000",
          "111700.140000",
          "111700.140000",
          "111700.140000",
          "111700.140000",
          "111700.156000",
          "111700.156000",
          "111700.156000",
          "111700.156000",
          "111700.156000",
          "111700.156000",
          "111700.156000",
          "111700.171000",
          "111700.171000",
          "111740.125000",
          "111740.125000",
          "111740.125000",
          "111740.140000",
          "111740.140000",
          "111740.140000",
          "111740.140000",
          "111740.140000",
          "111740.140000",
          "111740.140000",
          "111740.156000",
          "111740.156000",
          "111740.156000",
          "111740.156000",
          "111740.156000",
          "111740.156000",
          "111740.171000",
          "111740.171000",
          "111740.171000",
          "111740.171000",
          "111820.125000",
          "111820.125000",
          "111820.125000",
          "111820.140000",
          "111820.140000",
          "111820.140000",
          "111820.140000",
          "111820.140000",
          "111820.140000",
          "111820.140000",
          "111820.156000",
          "111820.156000",
          "111820.156000",
          "111820.156000",
          "111820.156000",
          "111820.156000",
          "111820.156000",
          "111820.156000",
          "111820.171000",
          "111820.171000",
          "111900.125000",
          "111900.125000",
          "111900.125000",
          "111900.140000",
          "111900.140000",
          "111900.140000",
          "111900.140000",
          "111900.140000",
          "111900.140000",
          "111900.140000",
          "111900.156000",
          "111900.156000",
          "111900.156000",
          "111900.156000",
          "111900.156000",
          "111900.156000",
          "111900.156000",
          "111900.156000",
          "111900.171000",
          "111900.171000",
          "111940.125000",
          "111940.125000",
          "111940.125000",
          "111940.140000",
          "111940.140000",
          "111940.140000",
          "111940.140000",
          "111940.140000",
          "111940.140000",
          "111940.140000",
          "111940.156000",
          "111940.156000",
          "111940.156000",
          "111940.156000",
          "111940.156000",
          "111940.156000",
          "111940.156000",
          "111940.156000",
          "111940.171000",
          "111940.171000",
          "111956.109000",
          "111956.125000",
          "111956.125000",
          "111956.125000",
          "111956.125000",
          "111956.125000",
          "111956.125000",
          "111956.125000"
        ],
        "InstanceNumber": [
          1,
          2,
          3,
          4,
          5,
          6,
          7,
          8,
          9,
          10,
          11,
          12,
          13,
          14,
          15,
          16,
          17,
          18,
          19,
          20,
          21,
          22,
          23,
          24,
          25,
          26,
          27,
          28,
          29,
          30,
          31,
          32,
          33,
          34,
          35,
          36,
          37,
          38,
          39,
          40,
          41,
          42,
          43,
          44,
          45,
          46,
          47,
          48,
          49,
          50,
          51,
          52,
          53,
          54,
          55,
          56,
          57,
