{
  "aor": 0.0009054393305439331,
  "aqi": 0.015434947489539746,
  "bids_meta": {
    "AcquisitionMatrixPE": 68,
    "AcquisitionNumber": 1,
    "AcquisitionTime": "10:53:11.515000",
    "BandwidthPerPixelPhaseEncode": 31.289,
    "BaseResolution": 68,
    "CogAtlasID": "TODO",
    "CoilString": "C:HEA;HEP",
    "ConversionSoftware": "dcm2niix",
    "ConversionSoftwareVersion": "v1.0.20190902",
    "DerivedVendorReportedEchoSpacing": 0.000470002,
    "DeviceSerialNumber": "35450",
    "DwellTime": 3e-06,
    "EchoTime": 0.023,
    "EffectiveEchoSpacing": 0.000470002,
    "FlipAngle": 76,
    "ImageOrientationPatientDICOM": [
      1,
      0,
      0,
      0,
      0.996917,
      -0.0784591
    ],
    "ImageType": [
      "ORIGINAL",
      "PRIMARY",
      "M",
      "ND",
      "MOSAIC"
    ],
    "ImagingFrequency": 123.218,
    "InPlanePhaseEncodingDirectionDICOM": "COL",
    "InstitutionAddress": "Univeristy_Ave._197_Newark_North_East_US_07102-1814",
    "InstitutionName": "RUBIC",
    "InstitutionalDepartmentName": "Department",
    "MRAcquisitionType": "2D",
    "MagneticFieldStrength": 3,
    "Manufacturer": "Siemens",
    "ManufacturersModelName": "TrioTim",
    "Modality": "MR",
    "PartialFourier": 1,
    "PatientPosition": "HFS",
    "PercentPhaseFOV": 100,
    "PhaseEncodingDirection": "j-",
    "PhaseEncodingSteps": 68,
    "PhaseResolution": 1,
    "PixelBandwidth": 2451,
    "ProcedureStepDescription": "Krekelberg_David",
    "ProtocolName": "ep2d_bold_RestEPI_1",
    "PulseSequenceDetails": "%SiemensSeq%_ep2d_bold",
    "ReceiveCoilName": "HeadMatrix",
    "ReconMatrixPE": 68,
    "RepetitionTime": 2,
    "SAR": 0.176971,
    "ScanOptions": "FS",
    "ScanningSequence": "EP",
    "SequenceName": "_epfid2d1_68",
    "SequenceVariant": "SK",
    "SeriesDescription": "ep2d_bold_RestEPI_1",
    "SeriesNumber": 7,
    "ShimSetting": [
      1971,
      -712,
      -7580,
      812,
      125,
      -193,
      -16,
      -175
    ],
    "SliceThickness": 2.5,
    "SliceTiming": [
      1.9525,
      1.8975,
      1.84,
      1.785,
      1.73,
      1.675,
      1.6175,
      1.5625,
      1.5075,
      1.45,
      1.395,
      1.34,
      1.2825,
      1.2275,
      1.1725,
      1.115,
      1.06,
      1.005,
      0.95,
      0.8925,
      0.8375,
      0.7825,
      0.725,
      0.67,
      0.615,
      0.5575,
      0.5025,
      0.4475,
      0.3925,
      0.335,
      0.28,
      0.225,
      0.1675,
      0.1125,
      0.0575,
      0
    ],
    "SoftwareVersions": "syngo_MR_B19",
    "SpacingBetweenSlices": 3,
    "StationName": "MRC35450",
    "TaskName": "rest",
    "TotalReadoutTime": 0.0314901,
    "TxRefAmp": 334.927,
    "dataset": "<unset>",
    "dcmmeta_affine": [
      [
        -3.0,
        0.0,
        0.0,
        107.4237289428711
      ],
      [
        0.0,
        2.9907519817352295,
        -0.23537729680538177,
        -72.20282745361328
      ],
      [
        0.0,
        0.23537728190422058,
        2.9907519817352295,
        -49.258155822753906
      ],
      [
        0.0,
        0.0,
        0.0,
        1.0
      ]
    ],
    "dcmmeta_reorient_transform": [
      [
        0.0,
        -1.0,
        0.0,
        67.0
      ],
      [
        1.0,
        0.0,
        0.0,
        0.0
      ],
      [
        0.0,
        0.0,
        1.0,
        0.0
      ],
      [
        0.0,
        0.0,
        0.0,
        1.0
      ]
    ],
    "dcmmeta_shape": [
      68,
      68,
      36,
      240
    ],
    "dcmmeta_slice_dim": 2,
    "dcmmeta_version": 0.6,
    "global": {
      "const": {
        "AcquisitionMatrix": [
          68,
          0,
          0,
          68
        ],
        "AngioFlag": "N",
        "BitsAllocated": 16,
        "BitsStored": 12,
        "Columns": 408,
        "EchoNumbers": 1,
        "EchoTime": 23.0,
        "EchoTrainLength": 1,
        "FlipAngle": 76.0,
        "HighBit": 11,
        "ImageOrientationPatient": [
          1.0,
          0.0,
          0.0,
          0.0,
          0.99691733371613,
          -0.0784590959439
        ],
        "ImagePositionPatient": [
          -617.42372894287,
          -636.60539355532,
          6.526263134894
        ],
        "ImageType": [
          "ORIGINAL",
          "PRIMARY",
          "M",
          "ND",
          "MOSAIC"
        ],
        "ImagedNucleus": "1H",
        "ImagingFrequency": 123.21844,
        "InPlanePhaseEncodingDirection": "COL",
        "MRAcquisitionType": "2D",
        "MagneticFieldStrength": 3.0,
        "Manufacturer": "SIEMENS",
        "ManufacturerModelName": "TrioTim",
        "Modality": "MR",
        "NumberOfAverages": 1.0,
        "NumberOfPhaseEncodingSteps": 68,
        "PercentPhaseFieldOfView": 100.0,
        "PercentSampling": 100.0,
        "PerformedProcedureStepStartTime": "101757.796000",
        "PhotometricInterpretation": "MONOCHROME2",
        "PixelBandwidth": 2451.0,
        "PixelRepresentation": 0,
        "PixelSpacing": [
          3.0,
          3.0
        ],
        "ProtocolName": "ep2d_bold_RestEPI_1",
        "RepetitionTime": 2000.0,
        "Rows": 408,
        "SAR": 0.17697147421409,
        "SamplesPerPixel": 1,
        "ScanOptions": "FS",
        "ScanningSequence": "EP",
        "SequenceName": "*epfid2d1_68",
        "SequenceVariant": "SK",
        "SeriesDescription": "ep2d_bold_RestEPI_1",
        "SeriesNumber": 7,
        "SeriesTime": "105404.000000",
        "SliceLocation": -43.441338807783,
        "SliceThickness": 2.5,
        "SmallestImagePixelValue": 0,
        "SoftwareVersions": "syngo MR B19",
        "SpacingBetweenSlices": 3.0000000822465,
        "SpecificCharacterSet": "ISO_IR 100",
        "StudyID": "1",
        "StudyTime": "101757.687000",
        "TransmitCoilName": "Body",
        "VariableFlipAngleFlag": "N",
        "WindowCenterWidthExplanation": "Algo1",
        "dBdt": 0.0
      },
      "slices": {}
    },
    "modality": "bold",
    "run_id": 1,
    "subject_id": "225",
    "task_id": "rest",
    "time": {
      "samples": {
        "AcquisitionNumber": [
          1,
          2,
          3,
          4,
          5,
          6,
          7,
          8,
          9,
          10,
          11,
          12,
          13,
          14,
          15,
          16,
          17,
          18,
          19,
          20,
          21,
          22,
          23,
          24,
          25,
          26,
          27,
          28,
          29,
          30,
          31,
          32,
          33,
          34,
          35,
          36,
          37,
          38,
          39,
          40,
          41,
          42,
          43,
          44,
          45,
          46,
          47,
          48,
          49,
          50,
          51,
          52,
          53,
          54,
          55,
          56,
          57,
          58,
          59,
          60,
          61,
          62,
          63,
          64,
          65,
          66,
          67,
          68,
          69,
          70,
          71,
          72,
          73,
          74,
          75,
          76,
          77,
          78,
          79,
          80,
          81,
          82,
          83,
          84,
          85,
          86,
          87,
          88,
          89,
          90,
          91,
          92,
          93,
          94,
          95,
          96,
          97,
          98,
          99,
          100,
          101,
          102,
          103,
          104,
          105,
          106,
          107,
          108,
          109,
          110,
          111,
          112,
          113,
          114,
          115,
          116,
          117,
          118,
          119,
          120,
          121,
          122,
          123,
          124,
          125,
          126,
          127,
          128,
          129,
          130,
          131,
          132,
          133,
          134,
          135,
          136,
          137,
          138,
          139,
          140,
          141,
          142,
          143,
          144,
          145,
          146,
          147,
          148,
          149,
          150,
          151,
          152,
          153,
          154,
          155,
          156,
          157,
          158,
          159,
          160,
          161,
          162,
          163,
          164,
          165,
          166,
          167,
          168,
          169,
          170,
          171,
          172,
          173,
          174,
          175,
          176,
          177,
          178,
          179,
          180,
          181,
          182,
          183,
          184,
          185,
          186,
          187,
          188,
          189,
          190,
          191,
          192,
          193,
          194,
          195,
          196,
          197,
          198,
          199,
          200,
          201,
          202,
          203,
          204,
          205,
          206,
          207,
          208,
          209,
          210,
          211,
          212,
          213,
          214,
          215,
          216,
          217,
          218,
          219,
          220,
          221,
          222,
          223,
          224,
          225,
          226,
          227,
          228,
          229,
          230,
          231,
          232,
          233,
          234,
          235,
          236,
          237,
          238,
          239,
          240
        ],
        "AcquisitionTime": [
          "105311.515000",
          "105313.522500",
          "105315.530000",
          "105317.540000",
          "105319.547500",
          "105321.555000",
          "105323.562500",
          "105325.572500",
          "105327.580000",
          "105329.587500",
          "105331.595000",
          "105333.602500",
          "105335.612500",
          "105337.620000",
          "105339.627500",
          "105341.635000",
          "105343.642500",
          "105345.652500",
          "105347.660000",
          "105349.667500",
          "105351.675000",
          "105353.685000",
          "105355.692500",
          "105357.700000",
          "105359.707500",
          "105401.715000",
          "105403.725000",
          "105405.732500",
          "105407.740000",
          "105409.747500",
          "105411.755000",
          "105413.765000",
          "105415.772500",
          "105417.780000",
          "105419.787500",
          "105421.797500",
          "105423.805000",
          "105425.812500",
          "105427.820000",
          "105429.827500",
          "105431.837500",
          "105433.845000",
          "105435.852500",
          "105437.860000",
          "105439.867500",
          "105441.877500",
          "105443.885000",
          "105445.892500",
          "105447.900000",
          "105449.910000",
          "105451.917500",
          "105453.925000",
          "105455.932500",
          "105457.940000",
          "105459.950000",
          "105501.957500",
          "105503.965000",
          "105505.972500",
          "105507.980000",
          "105509.990000",
          "105511.997500",
          "105514.005000",
          "105516.012500",
          "105518.020000",
          "105520.030000",
          "105522.037500",
          "105524.045000",
          "105526.052500",
          "105528.062500",
          "105530.070000",
          "105532.077500",
          "105534.085000",
          "105536.092500",
          "105538.102500",
          "105540.110000",
          "105542.117500",
          "105544.125000",
          "105546.132500",
          "105548.142500",
          "105550.150000",
          "105552.157500",
          "105554.165000",
          "105556.175000",
          "105558.182500",
          "105600.190000",
          "105602.197500",
          "105604.205000",
          "105606.215000",
          "105608.222500",
          "105610.230000",
          "105612.237500",
          "105614.245000",
          "105616.255000",
          "105618.262500",
          "105620.270000",
          "105622.277500",
          "105624.287500",
          "105626.295000",
          "105628.302500",
          "105630.310000",
          "105632.317500",
          "105634.327500",
          "105636.335000",
          "105638.342500",
          "105640.350000",
          "105642.357500",
          "105644.367500",
          "105646.375000",
          "105648.382500",
          "105650.390000",
          "105652.397500",
          "105654.407500",
          "105656.415000",
          "105658.422500",
          "105700.430000",
          "105702.440000",
          "105704.447500",
          "105706.455000",
          "105708.462500",
          "105710.470000",
          "105712.480000",
          "105714.487500",
          "105716.495000",
          "105718.502500",
          "105720.510000",
          "105722.520000",
          "105724.527500",
          "105726.535000",
          "105728.542500",
          "105730.552500",
          "105732.560000",
          "105734.567500",
          "105736.575000",
          "105738.582500",
          "105740.592500",
          "105742.600000",
          "105744.607500",
          "105746.615000",
          "105748.622500",
          "105750.632500",
          "105752.640000",
          "105754.647500",
          "105756.655000",
          "105758.665000",
          "105800.672500",
          "105802.680000",
          "105804.687500",
          "105806.695000",
          "105808.705000",
          "105810.712500",
          "105812.720000",
          "105814.727500",
          "105816.735000",
          "105818.745000",
          "105820.752500",
          "105822.760000",
          "105824.767500",
          "105826.775000",
          "105828.785000",
          "105830.792500",
          "105832.800000",
          "105834.807500",
          "105836.817500",
          "105838.825000",
          "105840.832500",
          "105842.840000",
          "105844.847500",
          "105846.857500",
          "105848.865000",
          "105850.872500",
          "105852.880000",
          "105854.887500",
          "105856.897500",
          "105858.905000",
          "105900.912500",
          "105902.920000",
          "105904.930000",
          "105906.937500",
          "105908.945000",
          "105910.952500",
          "105912.960000",
          "105914.970000",
          "105916.977500",
          "105918.985000",
          "105920.992500",
          "105923.000000",
          "105925.010000",
          "105927.017500",
          "105929.025000",
          "105931.032500",
          "105933.042500",
          "105935.050000",
          "105937.057500",
          "105939.065000",
          "105941.072500",
          "105943.082500",
          "105945.090000",
          "105947.097500",
          "105949.105000",
          "105951.112500",
          "105953.122500",
          "105955.130000",
          "105957.137500",
          "105959.145000",
          "110001.152500",
          "110003.162500",
          "110005.170000",
          "110007.177500",
          "110009.185000",
          "110011.195000",
          "110013.202500",
          "110015.210000",
          "110017.217500",
          "110019.225000",
          "110021.235000",
          "110023.242500",
          "110025.250000",
          "110027.257500",
          "110029.265000",
          "110031.275000",
          "110033.282500",
          "110035.290000",
          "110037.297500",
          "110039.307500",
          "110041.315000",
          "110043.322500",
          "110045.330000",
          "110047.337500",
          "110049.347500",
          "110051.355000",
          "110053.362500",
          "110055.370000",
          "110057.377500",
          "110059.387500",
          "110101.395000",
          "110103.402500",
          "110105.410000",
          "110107.420000",
          "110109.427500",
          "110111.435000"
        ],
        "ContentTime": [
          "105404.000000",
          "105404.015000",
          "105404.015000",
          "105404.015000",
          "105404.015000",
          "105404.015000",
          "105404.015000",
          "105404.015000",
          "105404.031000",
          "105404.031000",
          "105404.031000",
          "105404.031000",
          "105404.031000",
          "105404.031000",
          "105404.031000",
          "105404.046000",
          "105404.046000",
          "105404.046000",
          "105404.046000",
          "105404.046000",
          "105404.046000",
          "105404.046000",
          "105404.046000",
          "105404.062000",
          "105404.062000",
          "105404.062000",
          "105444.000000",
          "105444.000000",
          "105444.015000",
          "105444.015000",
          "105444.015000",
          "105444.015000",
          "105444.015000",
          "105444.015000",
          "105444.015000",
          "105444.015000",
          "105444.031000",
          "105444.031000",
          "105444.031000",
          "105444.031000",
          "105444.031000",
          "105444.031000",
          "105444.031000",
          "105444.031000",
          "105444.046000",
          "105444.046000",
          "105524.000000",
          "105524.000000",
          "105524.000000",
          "105524.015000",
          "105524.015000",
          "105524.015000",
          "105524.015000",
          "105524.015000",
          "105524.015000",
          "105524.015000",
          "105524.031000",
          "105524.031000",
          "105524.031000",
          "105524.031000",
          "105524.031000",
          "105524.031000",
          "105524.031000",
          "105524.046000",
          "105524.046000",
          "105524.046000",
          "105544.000000",
          "105544.000000",
          "105544.000000",
          "105544.015000",
          "105544.015000",
          "105544.015000",
          "105544.015000",
          "105544.015000",
          "105544.015000",
          "105544.015000",
          "105624.000000",
          "105624.000000",
          "105624.015000",
          "105624.015000",
          "105624.015000",
          "105624.015000",
          "105624.015000",
          "105624.015000",
          "105624.015000",
          "105624.015000",
          "105624.031000",
          "105624.031000",
          "105624.031000",
          "105624.031000",
          "105624.031000",
          "105624.031000",
          "105624.031000",
          "105624.046000",
          "105624.046000",
          "105624.046000",
          "105704.000000",
          "105704.000000",
          "105704.000000",
          "105704.015000",
          "105704.015000",
          "105704.015000",
          "105704.015000",
          "105704.015000",
          "105704.015000",
          "105704.015000",
          "105704.031000",
          "105704.031000",
          "105704.031000",
          "105704.031000",
          "105704.031000",
          "105704.031000",
          "105704.031000",
          "105704.046000",
          "105704.046000",
          "105704.046000",
          "105744.000000",
          "105744.000000",
          "105744.000000",
          "105744.015000",
          "105744.015000",
          "105744.015000",
          "105744.015000",
          "105744.015000",
          "105744.015000",
          "105744.015000",
          "105744.031000",
          "105744.031000",
          "105744.031000",
          "105744.031000",
          "105744.031000",
          "105744.031000",
          "105744.031000",
          "105744.046000",
          "105744.046000",
          "105744.046000",
          "105824.000000",
          "105824.000000",
          "105824.000000",
          "105824.015000",
          "105824.015000",
          "105824.015000",
          "105824.015000",
          "105824.015000",
          "105824.015000",
          "105824.015000",
          "105824.031000",
          "105824.031000",
          "105824.031000",
          "105824.031000",
          "105824.031000",
          "105824.031000",
          "105824.031000",
          "105824.031000",
          "105824.046000",
          "105824.046000",
          "105904.000000",
          "105904.000000",
          "105904.015000",
          "105904.015000",
          "105904.015000",
          "105904.015000",
          "105904.015000",
          "105904.015000",
          "105904.015000",
          "105904.015000",
          "105904.031000",
          "105904.031000",
          "105904.031000",
          "105904.031000",
          "105904.031000",
          "105904.046000",
          "105904.046000",
          "105904.046000",
          "105904.046000",
          "105904.046000",
          "105944.000000",
          "105944.000000",
          "105944.000000",
          "105944.015000",
          "105944.015000",
          "105944.015000",
          "105944.015000",
          "105944.015000",
          "105944.015000",
          "105944.015000",
          "105944.031000",
          "105944.031000",
          "105944.031000",
          "105944.031000",
          "105944.031000",
          "105944.031000",
          "105944.031000",
          "105944.046000",
          "105944.046000",
          "105944.046000",
          "110024.000000",
          "110024.000000",
          "110024.000000",
          "110024.015000",
          "110024.015000",
          "110024.015000",
          "110024.015000",
          "110024.015000",
          "110024.015000",
          "110024.015000",
          "110024.031000",
          "110024.031000",
          "110024.031000",
          "110024.031000",
          "110024.031000",
          "110024.031000",
          "110024.031000",
          "110024.031000",
          "110024.046000",
          "110024.046000",
          "110104.000000",
          "110104.000000",
          "110104.000000",
          "110104.015000",
          "110104.015000",
          "110104.015000",
          "110104.015000",
          "110104.015000",
          "110104.015000",
          "110104.031000",
          "110104.031000",
          "110104.031000",
          "110104.031000",
          "110104.046000",
          "110104.046000",
          "110104.046000",
          "110104.046000",
          "110104.046000",
          "110104.046000",
          "110104.046000",
          "110111.343000",
          "110111.359000",
          "110111.359000",
          "110111.359000"
        ],
        "InstanceCreationTime": [
          "105404.000000",
          "105404.015000",
          "105404.015000",
          "105404.015000",
          "105404.015000",
          "105404.015000",
          "105404.015000",
          "105404.015000",
          "105404.031000",
          "105404.031000",
          "105404.031000",
          "105404.031000",
          "105404.031000",
          "105404.031000",
          "105404.031000",
          "105404.046000",
          "105404.046000",
          "105404.046000",
          "105404.046000",
          "105404.046000",
          "105404.046000",
          "105404.046000",
          "105404.046000",
          "105404.062000",
          "105404.062000",
          "105404.062000",
          "105444.000000",
          "105444.000000",
          "105444.015000",
          "105444.015000",
          "105444.015000",
          "105444.015000",
          "105444.015000",
          "105444.015000",
          "105444.015000",
          "105444.015000",
          "105444.031000",
          "105444.031000",
          "105444.031000",
          "105444.031000",
          "105444.031000",
          "105444.031000",
          "105444.031000",
          "105444.031000",
          "105444.046000",
          "105444.046000",
          "105524.000000",
          "105524.000000",
          "105524.000000",
          "105524.015000",
          "105524.015000",
          "105524.015000",
          "105524.015000",
          "105524.015000",
          "105524.015000",
          "105524.015000",
          "105524.031000",
          "105524.031000",
          "105524.031000",
          "105524.031000",
          "105524.031000",
          "105524.031000",
          "105524.031000",
          "105524.046000",
          "105524.046000",
          "105524.046000",
          "105544.000000",
          "105544.000000",
          "105544.000000",
          "105544.015000",
          "105544.015000",
          "105544.015000",
          "105544.015000",
          "105544.015000",
          "105544.015000",
          "105544.015000",
          "105624.000000",
          "105624.000000",
          "105624.015000",
          "105624.015000",
          "105624.015000",
          "105624.015000",
          "105624.015000",
          "105624.015000",
          "105624.015000",
          "105624.015000",
          "105624.031000",
          "105624.031000",
          "105624.031000",
          "105624.031000",
          "105624.031000",
          "105624.031000",
          "105624.031000",
          "105624.046000",
          "105624.046000",
          "105624.046000",
          "105704.000000",
          "105704.000000",
          "105704.000000",
          "105704.015000",
          "105704.015000",
          "105704.015000",
          "105704.015000",
          "105704.015000",
          "105704.015000",
          "105704.015000",
          "105704.031000",
          "105704.031000",
          "105704.031000",
          "105704.031000",
          "105704.031000",
          "105704.031000",
          "105704.031000",
          "105704.046000",
          "105704.046000",
          "105704.046000",
          "105744.000000",
          "105744.000000",
          "105744.000000",
          "105744.015000",
          "105744.015000",
          "105744.015000",
          "105744.015000",
          "105744.015000",
          "105744.015000",
          "105744.015000",
          "105744.031000",
          "105744.031000",
          "105744.031000",
          "105744.031000",
          "105744.031000",
          "105744.031000",
          "105744.031000",
          "105744.046000",
          "105744.046000",
          "105744.046000",
          "105824.000000",
          "105824.000000",
          "105824.000000",
          "105824.015000",
          "105824.015000",
          "105824.015000",
          "105824.015000",
          "105824.015000",
          "105824.015000",
          "105824.015000",
          "105824.031000",
          "105824.031000",
          "105824.031000",
          "105824.031000",
          "105824.031000",
          "105824.031000",
          "105824.031000",
          "105824.031000",
          "105824.046000",
          "105824.046000",
          "105904.000000",
          "105904.000000",
          "105904.015000",
          "105904.015000",
          "105904.015000",
          "105904.015000",
          "105904.015000",
          "105904.015000",
          "105904.015000",
          "105904.015000",
          "105904.031000",
          "105904.031000",
          "105904.031000",
          "105904.031000",
          "105904.031000",
          "105904.046000",
          "105904.046000",
          "105904.046000",
          "105904.046000",
          "105904.046000",
          "105944.000000",
          "105944.000000",
          "105944.000000",
          "105944.015000",
          "105944.015000",
          "105944.015000",
          "105944.015000",
          "105944.015000",
          "105944.015000",
          "105944.015000",
          "105944.031000",
          "105944.031000",
          "105944.031000",
          "105944.031000",
          "105944.031000",
          "105944.031000",
          "105944.031000",
          "105944.046000",
          "105944.046000",
          "105944.046000",
          "110024.000000",
          "110024.000000",
          "110024.000000",
          "110024.015000",
          "110024.015000",
          "110024.015000",
          "110024.015000",
          "110024.015000",
          "110024.015000",
          "110024.015000",
          "110024.031000",
          "110024.031000",
          "110024.031000",
          "110024.031000",
          "110024.031000",
          "110024.031000",
          "110024.031000",
          "110024.031000",
          "110024.046000",
          "110024.046000",
          "110104.000000",
          "110104.000000",
          "110104.000000",
          "110104.015000",
          "110104.015000",
          "110104.015000",
          "110104.015000",
          "110104.015000",
          "110104.015000",
          "110104.031000",
          "110104.031000",
          "110104.031000",
          "110104.031000",
          "110104.046000",
          "110104.046000",
          "110104.046000",
          "110104.046000",
          "110104.046000",
          "110104.046000",
          "110104.046000",
          "110111.343000",
          "110111.359000",
          "110111.359000",
          "110111.359000"
        ],
        "InstanceNumber": [
          1,
          2,
          3,
          4,
          5,
          6,
          7,
          8,
          9,
          10,
          11,
          12,
          13,
          14,
          15,
          16,
          17,
          18,
          19,
          20,
          21,
          22,
          23,
          24,
          25,
          26,
          27,
          28,
          29,
          30,
          31,
          32,
          33,
          34,
          35,
          36,
          37,
          38,
          39,
          40,
          41,
          42,
          43,
          44,
          45,
          46,
          47,
          48,
          49,
          50,
          51,
          52,
          53,
          54,
          55,
          56,
          57,
