{
  "aor": 0.0015018217054263566,
  "aqi": 0.015144859224806202,
  "bids_meta": {
    "AcquisitionMatrixPE": 68,
    "AcquisitionNumber": 1,
    "AcquisitionTime": "11:02:19.967500",
    "BandwidthPerPixelPhaseEncode": 31.289,
    "BaseResolution": 68,
    "CogAtlasID": "TODO",
    "CoilString": "C:HEA;HEP",
    "ConversionSoftware": "dcm2niix",
    "ConversionSoftwareVersion": "v1.0.20190902",
    "DerivedVendorReportedEchoSpacing": 0.000470002,
    "DeviceSerialNumber": "35450",
    "DwellTime": 3e-06,
    "EchoTime": 0.023,
    "EffectiveEchoSpacing": 0.000470002,
    "FlipAngle": 76,
    "ImageOrientationPatientDICOM": [
      1,
      0,
      0,
      0,
      0.996917,
      -0.0784591
    ],
    "ImageType": [
      "ORIGINAL",
      "PRIMARY",
      "M",
      "ND",
      "MOSAIC"
    ],
    "ImagingFrequency": 123.218,
    "InPlanePhaseEncodingDirectionDICOM": "COL",
    "InstitutionAddress": "Univeristy_Ave._197_Newark_North_East_US_07102-1814",
    "InstitutionName": "RUBIC",
    "InstitutionalDepartmentName": "Department",
    "MRAcquisitionType": "2D",
    "MagneticFieldStrength": 3,
    "Manufacturer": "Siemens",
    "ManufacturersModelName": "TrioTim",
    "Modality": "MR",
    "PartialFourier": 1,
    "PatientPosition": "HFS",
    "PercentPhaseFOV": 100,
    "PhaseEncodingDirection": "j-",
    "PhaseEncodingSteps": 68,
    "PhaseResolution": 1,
    "PixelBandwidth": 2451,
    "ProcedureStepDescription": "Krekelberg_David",
    "ProtocolName": "ep2d_bold_CardGameEPI_2",
    "PulseSequenceDetails": "%SiemensSeq%_ep2d_bold",
    "ReceiveCoilName": "HeadMatrix",
    "ReconMatrixPE": 68,
    "RepetitionTime": 2,
    "SAR": 0.177009,
    "ScanOptions": "FS",
    "ScanningSequence": "EP",
    "SequenceName": "_epfid2d1_68",
    "SequenceVariant": "SK",
    "SeriesDescription": "ep2d_bold_CardGameEPI_2",
    "SeriesNumber": 8,
    "ShimSetting": [
      1971,
      -712,
      -7580,
      812,
      125,
      -193,
      -16,
      -175
    ],
    "SliceThickness": 2.5,
    "SliceTiming": [
      1.9525,
      1.8975,
      1.84,
      1.785,
      1.73,
      1.675,
      1.6175,
      1.5625,
      1.5075,
      1.45,
      1.395,
      1.34,
      1.2825,
      1.2275,
      1.1725,
      1.115,
      1.06,
      1.005,
      0.95,
      0.8925,
      0.8375,
      0.7825,
      0.725,
      0.67,
      0.615,
      0.5575,
      0.5025,
      0.4475,
      0.39,
      0.335,
      0.28,
      0.225,
      0.1675,
      0.1125,
      0.0575,
      0
    ],
    "SoftwareVersions": "syngo_MR_B19",
    "SpacingBetweenSlices": 3,
    "StationName": "MRC35450",
    "TaskName": "cardgame",
    "TotalReadoutTime": 0.0314901,
    "TxRefAmp": 334.927,
    "dataset": "<unset>",
    "dcmmeta_affine": [
      [
        -3.0,
        0.0,
        0.0,
        107.4237289428711
      ],
      [
        0.0,
        2.9907519817352295,
        -0.23537729680538177,
        -72.20282745361328
      ],
      [
        0.0,
        0.23537728190422058,
        2.9907519817352295,
        -49.258155822753906
      ],
      [
        0.0,
        0.0,
        0.0,
        1.0
      ]
    ],
    "dcmmeta_reorient_transform": [
      [
        0.0,
        -1.0,
        0.0,
        67.0
      ],
      [
        1.0,
        0.0,
        0.0,
        0.0
      ],
      [
        0.0,
        0.0,
        1.0,
        0.0
      ],
      [
        0.0,
        0.0,
        0.0,
        1.0
      ]
    ],
    "dcmmeta_shape": [
      68,
      68,
      36,
      258
    ],
    "dcmmeta_slice_dim": 2,
    "dcmmeta_version": 0.6,
    "global": {
      "const": {
        "AcquisitionMatrix": [
          68,
          0,
          0,
          68
        ],
        "AngioFlag": "N",
        "BitsAllocated": 16,
        "BitsStored": 12,
        "Columns": 408,
        "EchoNumbers": 1,
        "EchoTime": 23.0,
        "EchoTrainLength": 1,
        "FlipAngle": 76.0,
        "HighBit": 11,
        "ImageOrientationPatient": [
          1.0,
          0.0,
          0.0,
          0.0,
          0.99691733371613,
          -0.0784590959439
        ],
        "ImagePositionPatient": [
          -617.42372894287,
          -636.60539355532,
          6.526263134894
        ],
        "ImageType": [
          "ORIGINAL",
          "PRIMARY",
          "M",
          "ND",
          "MOSAIC"
        ],
        "ImagedNucleus": "1H",
        "ImagingFrequency": 123.218461,
        "InPlanePhaseEncodingDirection": "COL",
        "MRAcquisitionType": "2D",
        "MagneticFieldStrength": 3.0,
        "Manufacturer": "SIEMENS",
        "ManufacturerModelName": "TrioTim",
        "Modality": "MR",
        "NumberOfAverages": 1.0,
        "NumberOfPhaseEncodingSteps": 68,
        "PercentPhaseFieldOfView": 100.0,
        "PercentSampling": 100.0,
        "PerformedProcedureStepStartTime": "101757.796000",
        "PhotometricInterpretation": "MONOCHROME2",
        "PixelBandwidth": 2451.0,
        "PixelRepresentation": 0,
        "PixelSpacing": [
          3.0,
          3.0
        ],
        "ProtocolName": "ep2d_bold_CardGameEPI_2",
        "RepetitionTime": 2000.0,
        "Rows": 408,
        "SAR": 0.17700933567383,
        "SamplesPerPixel": 1,
        "ScanOptions": "FS",
        "ScanningSequence": "EP",
        "SequenceName": "*epfid2d1_68",
        "SequenceVariant": "SK",
        "SeriesDescription": "ep2d_bold_CardGameEPI_2",
        "SeriesNumber": 8,
        "SeriesTime": "110300.109000",
        "SliceLocation": -43.441338807783,
        "SliceThickness": 2.5,
        "SmallestImagePixelValue": 0,
        "SoftwareVersions": "syngo MR B19",
        "SpacingBetweenSlices": 3.0000000822465,
        "SpecificCharacterSet": "ISO_IR 100",
        "StudyID": "1",
        "StudyTime": "101757.687000",
        "TransmitCoilName": "Body",
        "VariableFlipAngleFlag": "N",
        "WindowCenterWidthExplanation": "Algo1",
        "dBdt": 0.0
      },
      "slices": {}
    },
    "modality": "bold",
    "run_id": 2,
    "subject_id": "225",
    "task_id": "cardgame",
    "time": {
      "samples": {
        "AcquisitionNumber": [
          1,
          2,
          3,
          4,
          5,
          6,
          7,
          8,
          9,
          10,
          11,
          12,
          13,
          14,
          15,
          16,
          17,
          18,
          19,
          20,
          21,
          22,
          23,
          24,
          25,
          26,
          27,
          28,
          29,
          30,
          31,
          32,
          33,
          34,
          35,
          36,
          37,
          38,
          39,
          40,
          41,
          42,
          43,
          44,
          45,
          46,
          47,
          48,
          49,
          50,
          51,
          52,
          53,
          54,
          55,
          56,
          57,
          58,
          59,
          60,
          61,
          62,
          63,
          64,
          65,
          66,
          67,
          68,
          69,
          70,
          71,
          72,
          73,
          74,
          75,
          76,
          77,
          78,
          79,
          80,
          81,
          82,
          83,
          84,
          85,
          86,
          87,
          88,
          89,
          90,
          91,
          92,
          93,
          94,
          95,
          96,
          97,
          98,
          99,
          100,
          101,
          102,
          103,
          104,
          105,
          106,
          107,
          108,
          109,
          110,
          111,
          112,
          113,
          114,
          115,
          116,
          117,
          118,
          119,
          120,
          121,
          122,
          123,
          124,
          125,
          126,
          127,
          128,
          129,
          130,
          131,
          132,
          133,
          134,
          135,
          136,
          137,
          138,
          139,
          140,
          141,
          142,
          143,
          144,
          145,
          146,
          147,
          148,
          149,
          150,
          151,
          152,
          153,
          154,
          155,
          156,
          157,
          158,
          159,
          160,
          161,
          162,
          163,
          164,
          165,
          166,
          167,
          168,
          169,
          170,
          171,
          172,
          173,
          174,
          175,
          176,
          177,
          178,
          179,
          180,
          181,
          182,
          183,
          184,
          185,
          186,
          187,
          188,
          189,
          190,
          191,
          192,
          193,
          194,
          195,
          196,
          197,
          198,
          199,
          200,
          201,
          202,
          203,
          204,
          205,
          206,
          207,
          208,
          209,
          210,
          211,
          212,
          213,
          214,
          215,
          216,
          217,
          218,
          219,
          220,
          221,
          222,
          223,
          224,
          225,
          226,
          227,
          228,
          229,
          230,
          231,
          232,
          233,
          234,
          235,
          236,
          237,
          238,
          239,
          240,
          241,
          242,
          243,
          244,
          245,
          246,
          247,
          248,
          249,
          250,
          251,
          252,
          253,
          254,
          255,
          256,
          257,
          258
        ],
        "AcquisitionTime": [
          "110219.967500",
          "110221.975000",
          "110223.982500",
          "110225.992500",
          "110228.000000",
          "110230.007500",
          "110232.015000",
          "110234.025000",
          "110236.032500",
          "110238.040000",
          "110240.047500",
          "110242.055000",
          "110244.065000",
          "110246.072500",
          "110248.080000",
          "110250.087500",
          "110252.095000",
          "110254.105000",
          "110256.112500",
          "110258.120000",
          "110300.127500",
          "110302.137500",
          "110304.145000",
          "110306.152500",
          "110308.160000",
          "110310.167500",
          "110312.177500",
          "110314.185000",
          "110316.192500",
          "110318.200000",
          "110320.207500",
          "110322.217500",
          "110324.225000",
          "110326.232500",
          "110328.240000",
          "110330.247500",
          "110332.257500",
          "110334.265000",
          "110336.272500",
          "110338.280000",
          "110340.290000",
          "110342.297500",
          "110344.305000",
          "110346.312500",
          "110348.320000",
          "110350.330000",
          "110352.337500",
          "110354.345000",
          "110356.352500",
          "110358.360000",
          "110400.370000",
          "110402.377500",
          "110404.385000",
          "110406.392500",
          "110408.402500",
          "110410.410000",
          "110412.417500",
          "110414.425000",
          "110416.432500",
          "110418.442500",
          "110420.450000",
          "110422.457500",
          "110424.465000",
          "110426.472500",
          "110428.482500",
          "110430.490000",
          "110432.497500",
          "110434.505000",
          "110436.515000",
          "110438.522500",
          "110440.530000",
          "110442.537500",
          "110444.545000",
          "110446.555000",
          "110448.562500",
          "110450.570000",
          "110452.577500",
          "110454.585000",
          "110456.595000",
          "110458.602500",
          "110500.610000",
          "110502.617500",
          "110504.625000",
          "110506.635000",
          "110508.642500",
          "110510.650000",
          "110512.657500",
          "110514.667500",
          "110516.675000",
          "110518.682500",
          "110520.690000",
          "110522.697500",
          "110524.707500",
          "110526.715000",
          "110528.722500",
          "110530.730000",
          "110532.737500",
          "110534.747500",
          "110536.755000",
          "110538.762500",
          "110540.770000",
          "110542.780000",
          "110544.787500",
          "110546.795000",
          "110548.802500",
          "110550.810000",
          "110552.820000",
          "110554.827500",
          "110556.835000",
          "110558.842500",
          "110600.850000",
          "110602.860000",
          "110604.867500",
          "110606.875000",
          "110608.882500",
          "110610.892500",
          "110612.900000",
          "110614.907500",
          "110616.915000",
          "110618.922500",
          "110620.932500",
          "110622.940000",
          "110624.947500",
          "110626.955000",
          "110628.962500",
          "110630.972500",
          "110632.980000",
          "110634.987500",
          "110636.995000",
          "110639.002500",
          "110641.012500",
          "110643.020000",
          "110645.027500",
          "110647.035000",
          "110649.045000",
          "110651.052500",
          "110653.060000",
          "110655.067500",
          "110657.075000",
          "110659.085000",
          "110701.092500",
          "110703.100000",
          "110705.107500",
          "110707.115000",
          "110709.125000",
          "110711.132500",
          "110713.140000",
          "110715.147500",
          "110717.157500",
          "110719.165000",
          "110721.172500",
          "110723.180000",
          "110725.187500",
          "110727.197500",
          "110729.205000",
          "110731.212500",
          "110733.220000",
          "110735.227500",
          "110737.237500",
          "110739.245000",
          "110741.252500",
          "110743.260000",
          "110745.270000",
          "110747.277500",
          "110749.285000",
          "110751.292500",
          "110753.300000",
          "110755.310000",
          "110757.317500",
          "110759.325000",
          "110801.332500",
          "110803.340000",
          "110805.350000",
          "110807.357500",
          "110809.365000",
          "110811.372500",
          "110813.380000",
          "110815.390000",
          "110817.397500",
          "110819.405000",
          "110821.412500",
          "110823.422500",
          "110825.430000",
          "110827.437500",
          "110829.445000",
          "110831.452500",
          "110833.462500",
          "110835.470000",
          "110837.477500",
          "110839.485000",
          "110841.492500",
          "110843.502500",
          "110845.510000",
          "110847.517500",
          "110849.525000",
          "110851.535000",
          "110853.542500",
          "110855.550000",
          "110857.557500",
          "110859.565000",
          "110901.575000",
          "110903.582500",
          "110905.590000",
          "110907.597500",
          "110909.605000",
          "110911.615000",
          "110913.622500",
          "110915.630000",
          "110917.637500",
          "110919.647500",
          "110921.655000",
          "110923.662500",
          "110925.670000",
          "110927.677500",
          "110929.687500",
          "110931.695000",
          "110933.702500",
          "110935.710000",
          "110937.717500",
          "110939.727500",
          "110941.735000",
          "110943.742500",
          "110945.750000",
          "110947.757500",
          "110949.767500",
          "110951.775000",
          "110953.782500",
          "110955.790000",
          "110957.800000",
          "110959.807500",
          "111001.815000",
          "111003.822500",
          "111005.830000",
          "111007.840000",
          "111009.847500",
          "111011.855000",
          "111013.862500",
          "111015.870000",
          "111017.880000",
          "111019.887500",
          "111021.895000",
          "111023.902500",
          "111025.912500",
          "111027.920000",
          "111029.927500",
          "111031.935000",
          "111033.942500",
          "111035.952500",
          "111037.960000",
          "111039.967500",
          "111041.975000",
          "111043.982500",
          "111045.992500",
          "111048.000000",
          "111050.007500",
          "111052.015000",
          "111054.025000",
          "111056.032500"
        ],
        "ContentTime": [
          "110300.109000",
          "110300.125000",
          "110300.125000",
          "110300.125000",
          "110300.125000",
          "110300.125000",
          "110300.125000",
          "110300.140000",
          "110300.140000",
          "110300.140000",
          "110300.140000",
          "110300.140000",
          "110300.140000",
          "110300.140000",
          "110300.140000",
          "110300.156000",
          "110300.156000",
          "110300.156000",
          "110300.156000",
          "110300.156000",
          "110340.109000",
          "110340.109000",
          "110340.109000",
          "110340.125000",
          "110340.125000",
          "110340.125000",
          "110340.125000",
          "110340.125000",
          "110340.125000",
          "110340.125000",
          "110340.140000",
          "110340.140000",
          "110340.140000",
          "110340.140000",
          "110340.140000",
          "110340.140000",
          "110340.140000",
          "110340.140000",
          "110340.156000",
          "110340.156000",
          "110420.109000",
          "110420.109000",
          "110420.125000",
          "110420.125000",
          "110420.125000",
          "110420.125000",
          "110420.125000",
          "110420.125000",
          "110420.125000",
          "110420.125000",
          "110420.140000",
          "110420.140000",
          "110420.140000",
          "110420.140000",
          "110420.140000",
          "110420.140000",
          "110420.140000",
          "110420.156000",
          "110420.156000",
          "110420.156000",
          "110500.109000",
          "110500.109000",
          "110500.109000",
          "110500.125000",
          "110500.125000",
          "110500.125000",
          "110500.125000",
          "110500.125000",
          "110500.125000",
          "110500.125000",
          "110500.140000",
          "110500.140000",
          "110500.140000",
          "110500.140000",
          "110500.140000",
          "110500.140000",
          "110500.140000",
          "110500.156000",
          "110500.156000",
          "110500.156000",
          "110540.109000",
          "110540.109000",
          "110540.125000",
          "110540.125000",
          "110540.125000",
          "110540.125000",
          "110540.125000",
          "110540.125000",
          "110540.125000",
          "110540.125000",
          "110540.140000",
          "110540.140000",
          "110540.140000",
          "110540.140000",
          "110540.140000",
          "110540.140000",
          "110540.140000",
          "110540.156000",
          "110540.156000",
          "110540.156000",
          "110620.109000",
          "110620.109000",
          "110620.109000",
          "110620.125000",
          "110620.125000",
          "110620.125000",
          "110620.125000",
          "110620.125000",
          "110620.125000",
          "110620.125000",
          "110620.140000",
          "110620.140000",
          "110620.140000",
          "110620.140000",
          "110620.140000",
          "110620.140000",
          "110620.140000",
          "110620.140000",
          "110620.156000",
          "110620.156000",
          "110700.109000",
          "110700.109000",
          "110700.109000",
          "110700.125000",
          "110700.125000",
          "110700.125000",
          "110700.125000",
          "110700.125000",
          "110700.125000",
          "110700.125000",
          "110700.140000",
          "110700.140000",
          "110700.140000",
          "110700.140000",
          "110700.140000",
          "110700.140000",
          "110700.140000",
          "110700.156000",
          "110700.156000",
          "110700.156000",
          "110740.109000",
          "110740.109000",
          "110740.125000",
          "110740.125000",
          "110740.125000",
          "110740.125000",
          "110740.125000",
          "110740.125000",
          "110740.125000",
          "110740.125000",
          "110740.140000",
          "110740.140000",
          "110740.140000",
          "110740.140000",
          "110740.140000",
          "110740.140000",
          "110740.140000",
          "110740.156000",
          "110740.156000",
          "110740.156000",
          "110820.109000",
          "110820.109000",
          "110820.125000",
          "110820.125000",
          "110820.125000",
          "110820.125000",
          "110820.125000",
          "110820.125000",
          "110820.125000",
          "110820.125000",
          "110820.140000",
          "110820.140000",
          "110820.140000",
          "110820.140000",
          "110820.140000",
          "110820.140000",
          "110820.140000",
          "110820.156000",
          "110820.156000",
          "110820.156000",
          "110900.109000",
          "110900.109000",
          "110900.109000",
          "110900.125000",
          "110900.125000",
          "110900.125000",
          "110900.125000",
          "110900.125000",
          "110900.125000",
          "110900.125000",
          "110900.140000",
          "110900.140000",
          "110900.140000",
          "110900.140000",
          "110900.140000",
          "110900.140000",
          "110900.140000",
          "110900.156000",
          "110900.156000",
          "110900.156000",
          "110940.109000",
          "110940.109000",
          "110940.125000",
          "110940.125000",
          "110940.125000",
          "110940.125000",
          "110940.125000",
          "110940.125000",
          "110940.125000",
          "110940.125000",
          "110940.140000",
          "110940.140000",
          "110940.140000",
          "110940.140000",
          "110940.140000",
          "110940.140000",
          "110940.140000",
          "110940.140000",
          "110940.156000",
          "110940.156000",
          "111020.109000",
          "111020.109000",
          "111020.109000",
          "111020.125000",
          "111020.125000",
          "111020.125000",
          "111020.125000",
          "111020.125000",
          "111020.125000",
          "111020.125000",
          "111020.140000",
          "111020.140000",
          "111020.140000",
          "111020.140000",
          "111020.140000",
          "111020.140000",
          "111020.140000",
          "111020.140000",
          "111020.156000",
          "111020.156000",
          "111055.671000",
          "111055.671000",
          "111055.671000",
          "111055.671000",
          "111055.671000",
          "111055.671000",
          "111055.671000",
          "111055.687000",
          "111055.687000",
          "111055.687000",
          "111055.687000",
          "111055.687000",
          "111055.687000",
          "111055.687000",
          "111055.687000",
          "111055.703000",
          "111055.703000",
          "111055.703000"
        ],
        "InstanceCreationTime": [
          "110300.109000",
          "110300.125000",
          "110300.125000",
          "110300.125000",
          "110300.125000",
          "110300.125000",
          "110300.125000",
          "110300.140000",
          "110300.140000",
          "110300.140000",
          "110300.140000",
          "110300.140000",
          "110300.140000",
          "110300.140000",
          "110300.140000",
          "110300.156000",
          "110300.156000",
          "110300.156000",
          "110300.156000",
          "110300.156000",
          "110340.109000",
          "110340.109000",
          "110340.109000",
          "110340.125000",
          "110340.125000",
          "110340.125000",
          "110340.125000",
          "110340.125000",
          "110340.125000",
          "110340.125000",
          "110340.140000",
          "110340.140000",
          "110340.140000",
          "110340.140000",
          "110340.140000",
          "110340.140000",
          "110340.140000",
          "110340.140000",
          "110340.156000",
          "110340.156000",
          "110420.109000",
          "110420.109000",
          "110420.125000",
          "110420.125000",
          "110420.125000",
          "110420.125000",
          "110420.125000",
          "110420.125000",
          "110420.125000",
          "110420.125000",
          "110420.140000",
          "110420.140000",
          "110420.140000",
          "110420.140000",
          "110420.140000",
          "110420.140000",
          "110420.140000",
          "110420.156000",
          "110420.156000",
          "110420.156000",
          "110500.109000",
          "110500.109000",
          "110500.109000",
          "110500.125000",
          "110500.125000",
          "110500.125000",
          "110500.125000",
          "110500.125000",
          "110500.125000",
          "110500.125000",
          "110500.140000",
          "110500.140000",
          "110500.140000",
          "110500.140000",
          "110500.140000",
          "110500.140000",
          "110500.140000",
          "110500.156000",
          "110500.156000",
          "110500.156000",
          "110540.109000",
          "110540.109000",
          "110540.125000",
          "110540.125000",
          "110540.125000",
          "110540.125000",
          "110540.125000",
          "110540.125000",
          "110540.125000",
          "110540.125000",
          "110540.140000",
          "110540.140000",
          "110540.140000",
          "110540.140000",
          "110540.140000",
          "110540.140000",
          "110540.140000",
          "110540.156000",
          "110540.156000",
          "110540.156000",
          "110620.109000",
          "110620.109000",
          "110620.109000",
          "110620.125000",
          "110620.125000",
          "110620.125000",
          "110620.125000",
          "110620.125000",
          "110620.125000",
          "110620.125000",
          "110620.140000",
          "110620.140000",
          "110620.140000",
          "110620.140000",
          "110620.140000",
          "110620.140000",
          "110620.140000",
          "110620.140000",
          "110620.156000",
          "110620.156000",
          "110700.109000",
          "110700.109000",
          "110700.109000",
          "110700.125000",
          "110700.125000",
          "110700.125000",
          "110700.125000",
          "110700.125000",
          "110700.125000",
          "110700.125000",
          "110700.140000",
          "110700.140000",
          "110700.140000",
          "110700.140000",
          "110700.140000",
          "110700.140000",
          "110700.140000",
          "110700.156000",
          "110700.156000",
          "110700.156000",
          "110740.109000",
          "110740.109000",
          "110740.125000",
          "110740.125000",
          "110740.125000",
          "110740.125000",
          "110740.125000",
          "110740.125000",
          "110740.125000",
          "110740.125000",
          "110740.140000",
          "110740.140000",
          "110740.140000",
          "110740.140000",
          "110740.140000",
          "110740.140000",
          "110740.140000",
          "110740.156000",
          "110740.156000",
          "110740.156000",
          "110820.109000",
          "110820.109000",
          "110820.125000",
          "110820.125000",
          "110820.125000",
          "110820.125000",
          "110820.125000",
          "110820.125000",
          "110820.125000",
          "110820.125000",
          "110820.140000",
          "110820.140000",
          "110820.140000",
          "110820.140000",
          "110820.140000",
          "110820.140000",
          "110820.140000",
          "110820.156000",
          "110820.156000",
          "110820.156000",
          "110900.109000",
          "110900.109000",
          "110900.109000",
          "110900.125000",
          "110900.125000",
          "110900.125000",
          "110900.125000",
          "110900.125000",
          "110900.125000",
          "110900.125000",
          "110900.140000",
          "110900.140000",
          "110900.140000",
          "110900.140000",
          "110900.140000",
          "110900.140000",
          "110900.140000",
          "110900.156000",
          "110900.156000",
          "110900.156000",
          "110940.109000",
          "110940.109000",
          "110940.125000",
          "110940.125000",
          "110940.125000",
          "110940.125000",
          "110940.125000",
          "110940.125000",
          "110940.125000",
          "110940.125000",
          "110940.140000",
          "110940.140000",
          "110940.140000",
          "110940.140000",
          "110940.140000",
          "110940.140000",
          "110940.140000",
          "110940.140000",
          "110940.156000",
          "110940.156000",
          "111020.109000",
          "111020.109000",
          "111020.109000",
          "111020.125000",
