{
  "aor": 0.005103852140077821,
  "aqi": 0.013473381517509727,
  "bids_meta": {
    "AcquisitionMatrixPE": 68,
    "AcquisitionNumber": 1,
    "AcquisitionTime": "11:39:4.227500",
    "BandwidthPerPixelPhaseEncode": 31.289,
    "BaseResolution": 68,
    "CogAtlasID": "TODO",
    "CoilString": "C:HEA;HEP",
    "ConversionSoftware": "dcm2niix",
    "ConversionSoftwareVersion": "v1.0.20190902",
    "DerivedVendorReportedEchoSpacing": 0.000470002,
    "DeviceSerialNumber": "35450",
    "DwellTime": 3e-06,
    "EchoTime": 0.023,
    "EffectiveEchoSpacing": 0.000470002,
    "FlipAngle": 76,
    "ImageOrientationPatientDICOM": [
      1,
      0,
      0,
      0,
      0.996917,
      -0.0784591
    ],
    "ImageType": [
      "ORIGINAL",
      "PRIMARY",
      "M",
      "ND",
      "MOSAIC"
    ],
    "ImagingFrequency": 123.219,
    "InPlanePhaseEncodingDirectionDICOM": "COL",
    "InstitutionAddress": "Univeristy_Ave._197_Newark_North_East_US_07102-1814",
    "InstitutionName": "RUBIC",
    "InstitutionalDepartmentName": "Department",
    "MRAcquisitionType": "2D",
    "MagneticFieldStrength": 3,
    "Manufacturer": "Siemens",
    "ManufacturersModelName": "TrioTim",
    "Modality": "MR",
    "PartialFourier": 1,
    "PatientPosition": "HFS",
    "PercentPhaseFOV": 100,
    "PhaseEncodingDirection": "j-",
    "PhaseEncodingSteps": 68,
    "PhaseResolution": 1,
    "PixelBandwidth": 2451,
    "ProcedureStepDescription": "Krekelberg_David",
    "ProtocolName": "ep2d_bold_CardGameEPI_3",
    "PulseSequenceDetails": "%SiemensSeq%_ep2d_bold",
    "ReceiveCoilName": "HeadMatrix",
    "ReconMatrixPE": 68,
    "RepetitionTime": 2,
    "SAR": 0.177009,
    "ScanOptions": "FS",
    "ScanningSequence": "EP",
    "SequenceName": "_epfid2d1_68",
    "SequenceVariant": "SK",
    "SeriesDescription": "ep2d_bold_CardGameEPI_3",
    "SeriesNumber": 12,
    "ShimSetting": [
      1971,
      -712,
      -7580,
      812,
      125,
      -193,
      -16,
      -175
    ],
    "SliceThickness": 2.5,
    "SliceTiming": [
      1.9525,
      1.895,
      1.84,
      1.785,
      1.73,
      1.6725,
      1.6175,
      1.5625,
      1.505,
      1.45,
      1.395,
      1.3375,
      1.2825,
      1.2275,
      1.1725,
      1.115,
      1.06,
      1.005,
      0.9475,
      0.8925,
      0.8375,
      0.78,
      0.725,
      0.67,
      0.6125,
      0.5575,
      0.5025,
      0.4475,
      0.39,
      0.335,
      0.28,
      0.2225,
      0.1675,
      0.1125,
      0.055,
      0
    ],
    "SoftwareVersions": "syngo_MR_B19",
    "SpacingBetweenSlices": 3,
    "StationName": "MRC35450",
    "TaskName": "cardgame",
    "TotalReadoutTime": 0.0314901,
    "TxRefAmp": 334.927,
    "dataset": "<unset>",
    "dcmmeta_affine": [
      [
        -3.0,
        0.0,
        0.0,
        107.4237289428711
      ],
      [
        0.0,
        2.9907519817352295,
        -0.23537729680538177,
        -72.20282745361328
      ],
      [
        0.0,
        0.23537728190422058,
        2.9907519817352295,
        -49.258155822753906
      ],
      [
        0.0,
        0.0,
        0.0,
        1.0
      ]
    ],
    "dcmmeta_reorient_transform": [
      [
        0.0,
        -1.0,
        0.0,
        67.0
      ],
      [
        1.0,
        0.0,
        0.0,
        0.0
      ],
      [
        0.0,
        0.0,
        1.0,
        0.0
      ],
      [
        0.0,
        0.0,
        0.0,
        1.0
      ]
    ],
    "dcmmeta_shape": [
      68,
      68,
      36,
      258
    ],
    "dcmmeta_slice_dim": 2,
    "dcmmeta_version": 0.6,
    "global": {
      "const": {
        "AcquisitionMatrix": [
          68,
          0,
          0,
          68
        ],
        "AngioFlag": "N",
        "BitsAllocated": 16,
        "BitsStored": 12,
        "Columns": 408,
        "EchoNumbers": 1,
        "EchoTime": 23.0,
        "EchoTrainLength": 1,
        "FlipAngle": 76.0,
        "HighBit": 11,
        "ImageOrientationPatient": [
          1.0,
          0.0,
          0.0,
          0.0,
          0.99691733371613,
          -0.0784590959439
        ],
        "ImagePositionPatient": [
          -617.42372894287,
          -636.60539355532,
          6.526263134894
        ],
        "ImageType": [
          "ORIGINAL",
          "PRIMARY",
          "M",
          "ND",
          "MOSAIC"
        ],
        "ImagedNucleus": "1H",
        "ImagingFrequency": 123.218523,
        "InPlanePhaseEncodingDirection": "COL",
        "MRAcquisitionType": "2D",
        "MagneticFieldStrength": 3.0,
        "Manufacturer": "SIEMENS",
        "ManufacturerModelName": "TrioTim",
        "Modality": "MR",
        "NumberOfAverages": 1.0,
        "NumberOfPhaseEncodingSteps": 68,
        "PercentPhaseFieldOfView": 100.0,
        "PercentSampling": 100.0,
        "PerformedProcedureStepStartTime": "101757.796000",
        "PhotometricInterpretation": "MONOCHROME2",
        "PixelBandwidth": 2451.0,
        "PixelRepresentation": 0,
        "PixelSpacing": [
          3.0,
          3.0
        ],
        "ProtocolName": "ep2d_bold_CardGameEPI_3",
        "RepetitionTime": 2000.0,
        "Rows": 408,
        "SAR": 0.17700933567383,
        "SamplesPerPixel": 1,
        "ScanOptions": "FS",
        "ScanningSequence": "EP",
        "SequenceName": "*epfid2d1_68",
        "SequenceVariant": "SK",
        "SeriesDescription": "ep2d_bold_CardGameEPI_3",
        "SeriesNumber": 12,
        "SeriesTime": "114000.125000",
        "SliceLocation": -43.441338807783,
        "SliceThickness": 2.5,
        "SmallestImagePixelValue": 0,
        "SoftwareVersions": "syngo MR B19",
        "SpacingBetweenSlices": 3.0000000822465,
        "SpecificCharacterSet": "ISO_IR 100",
        "StudyID": "1",
        "StudyTime": "101757.687000",
        "TransmitCoilName": "Body",
        "VariableFlipAngleFlag": "N",
        "WindowCenterWidthExplanation": "Algo1",
        "dBdt": 0.0
      },
      "slices": {}
    },
    "modality": "bold",
    "run_id": 3,
    "subject_id": "225",
    "task_id": "cardgame",
    "time": {
      "samples": {
        "AcquisitionNumber": [
          1,
          2,
          3,
          4,
          5,
          6,
          7,
          8,
          9,
          10,
          11,
          12,
          13,
          14,
          15,
          16,
          17,
          18,
          19,
          20,
          21,
          22,
          23,
          24,
          25,
          26,
          27,
          28,
          29,
          30,
          31,
          32,
          33,
          34,
          35,
          36,
          37,
          38,
          39,
          40,
          41,
          42,
          43,
          44,
          45,
          46,
          47,
          48,
          49,
          50,
          51,
          52,
          53,
          54,
          55,
          56,
          57,
          58,
          59,
          60,
          61,
          62,
          63,
          64,
          65,
          66,
          67,
          68,
          69,
          70,
          71,
          72,
          73,
          74,
          75,
          76,
          77,
          78,
          79,
          80,
          81,
          82,
          83,
          84,
          85,
          86,
          87,
          88,
          89,
          90,
          91,
          92,
          93,
          94,
          95,
          96,
          97,
          98,
          99,
          100,
          101,
          102,
          103,
          104,
          105,
          106,
          107,
          108,
          109,
          110,
          111,
          112,
          113,
          114,
          115,
          116,
          117,
          118,
          119,
          120,
          121,
          122,
          123,
          124,
          125,
          126,
          127,
          128,
          129,
          130,
          131,
          132,
          133,
          134,
          135,
          136,
          137,
          138,
          139,
          140,
          141,
          142,
          143,
          144,
          145,
          146,
          147,
          148,
          149,
          150,
          151,
          152,
          153,
          154,
          155,
          156,
          157,
          158,
          159,
          160,
          161,
          162,
          163,
          164,
          165,
          166,
          167,
          168,
          169,
          170,
          171,
          172,
          173,
          174,
          175,
          176,
          177,
          178,
          179,
          180,
          181,
          182,
          183,
          184,
          185,
          186,
          187,
          188,
          189,
          190,
          191,
          192,
          193,
          194,
          195,
          196,
          197,
          198,
          199,
          200,
          201,
          202,
          203,
          204,
          205,
          206,
          207,
          208,
          209,
          210,
          211,
          212,
          213,
          214,
          215,
          216,
          217,
          218,
          219,
          220,
          221,
          222,
          223,
          224,
          225,
          226,
          227,
          228,
          229,
          230,
          231,
          232,
          233,
          234,
          235,
          236,
          237,
          238,
          239,
          240,
          241,
          242,
          243,
          244,
          245,
          246,
          247,
          248,
          249,
          250,
          251,
          252,
          253,
          254,
          255,
          256,
          257,
          258
        ],
        "AcquisitionTime": [
          "113904.227500",
          "113906.235000",
          "113908.242500",
          "113910.250000",
          "113912.260000",
          "113914.267500",
          "113916.275000",
          "113918.282500",
          "113920.290000",
          "113922.300000",
          "113924.307500",
          "113926.315000",
          "113928.322500",
          "113930.332500",
          "113932.340000",
          "113934.347500",
          "113936.355000",
          "113938.362500",
          "113940.372500",
          "113942.380000",
          "113944.387500",
          "113946.395000",
          "113948.402500",
          "113950.412500",
          "113952.420000",
          "113954.427500",
          "113956.435000",
          "113958.445000",
          "114000.452500",
          "114002.460000",
          "114004.467500",
          "114006.475000",
          "114008.485000",
          "114010.492500",
          "114012.500000",
          "114014.507500",
          "114016.515000",
          "114018.525000",
          "114020.532500",
          "114022.540000",
          "114024.547500",
          "114026.557500",
          "114028.565000",
          "114030.572500",
          "114032.580000",
          "114034.587500",
          "114036.597500",
          "114038.605000",
          "114040.612500",
          "114042.620000",
          "114044.627500",
          "114046.637500",
          "114048.645000",
          "114050.652500",
          "114052.660000",
          "114054.667500",
          "114056.677500",
          "114058.685000",
          "114100.692500",
          "114102.700000",
          "114104.710000",
          "114106.717500",
          "114108.725000",
          "114110.732500",
          "114112.740000",
          "114114.750000",
          "114116.757500",
          "114118.765000",
          "114120.772500",
          "114122.780000",
          "114124.790000",
          "114126.797500",
          "114128.805000",
          "114130.812500",
          "114132.822500",
          "114134.830000",
          "114136.837500",
          "114138.845000",
          "114140.852500",
          "114142.862500",
          "114144.870000",
          "114146.877500",
          "114148.885000",
          "114150.892500",
          "114152.902500",
          "114154.910000",
          "114156.917500",
          "114158.925000",
          "114200.935000",
          "114202.942500",
          "114204.950000",
          "114206.957500",
          "114208.965000",
          "114210.975000",
          "114212.982500",
          "114214.990000",
          "114216.997500",
          "114219.005000",
          "114221.015000",
          "114223.022500",
          "114225.030000",
          "114227.037500",
          "114229.047500",
          "114231.055000",
          "114233.062500",
          "114235.070000",
          "114237.077500",
          "114239.087500",
          "114241.095000",
          "114243.102500",
          "114245.110000",
          "114247.117500",
          "114249.127500",
          "114251.135000",
          "114253.142500",
          "114255.150000",
          "114257.157500",
          "114259.167500",
          "114301.175000",
          "114303.182500",
          "114305.190000",
          "114307.200000",
          "114309.207500",
          "114311.215000",
          "114313.222500",
          "114315.230000",
          "114317.240000",
          "114319.247500",
          "114321.255000",
          "114323.262500",
          "114325.270000",
          "114327.280000",
          "114329.287500",
          "114331.295000",
          "114333.302500",
          "114335.312500",
          "114337.320000",
          "114339.327500",
          "114341.335000",
          "114343.342500",
          "114345.352500",
          "114347.360000",
          "114349.367500",
          "114351.375000",
          "114353.382500",
          "114355.392500",
          "114357.400000",
          "114359.407500",
          "114401.415000",
          "114403.425000",
          "114405.432500",
          "114407.440000",
          "114409.447500",
          "114411.455000",
          "114413.465000",
          "114415.472500",
          "114417.480000",
          "114419.487500",
          "114421.495000",
          "114423.505000",
          "114425.512500",
          "114427.520000",
          "114429.527500",
          "114431.535000",
          "114433.545000",
          "114435.552500",
          "114437.560000",
          "114439.567500",
          "114441.577500",
          "114443.585000",
          "114445.592500",
          "114447.600000",
          "114449.607500",
          "114451.617500",
          "114453.625000",
          "114455.632500",
          "114457.640000",
          "114459.647500",
          "114501.657500",
          "114503.665000",
          "114505.672500",
          "114507.680000",
          "114509.690000",
          "114511.697500",
          "114513.705000",
          "114515.712500",
          "114517.720000",
          "114519.730000",
          "114521.737500",
          "114523.745000",
          "114525.752500",
          "114527.760000",
          "114529.770000",
          "114531.777500",
          "114533.785000",
          "114535.792500",
          "114537.802500",
          "114539.810000",
          "114541.817500",
          "114543.825000",
          "114545.832500",
          "114547.842500",
          "114549.850000",
          "114551.857500",
          "114553.865000",
          "114555.872500",
          "114557.882500",
          "114559.890000",
          "114601.897500",
          "114603.905000",
          "114605.912500",
          "114607.922500",
          "114609.930000",
          "114611.937500",
          "114613.945000",
          "114615.955000",
          "114617.962500",
          "114619.970000",
          "114621.977500",
          "114623.985000",
          "114625.995000",
          "114628.002500",
          "114630.010000",
          "114632.017500",
          "114634.025000",
          "114636.035000",
          "114638.042500",
          "114640.050000",
          "114642.057500",
          "114644.067500",
          "114646.075000",
          "114648.082500",
          "114650.090000",
          "114652.097500",
          "114654.107500",
          "114656.115000",
          "114658.122500",
          "114700.130000",
          "114702.137500",
          "114704.147500",
          "114706.155000",
          "114708.162500",
          "114710.170000",
          "114712.180000",
          "114714.187500",
          "114716.195000",
          "114718.202500",
          "114720.210000",
          "114722.220000",
          "114724.227500",
          "114726.235000",
          "114728.242500",
          "114730.250000",
          "114732.260000",
          "114734.267500",
          "114736.275000",
          "114738.282500",
          "114740.290000"
        ],
        "ContentTime": [
          "114000.125000",
          "114000.140000",
          "114000.140000",
          "114000.140000",
          "114000.140000",
          "114000.140000",
          "114000.140000",
          "114000.140000",
          "114000.156000",
          "114000.156000",
          "114000.156000",
          "114000.156000",
          "114000.156000",
          "114000.156000",
          "114000.156000",
          "114000.171000",
          "114000.171000",
          "114000.171000",
          "114000.171000",
          "114000.171000",
          "114000.171000",
          "114000.171000",
          "114000.187000",
          "114000.187000",
          "114000.187000",
          "114000.187000",
          "114000.187000",
          "114040.125000",
          "114040.125000",
          "114040.125000",
          "114040.140000",
          "114040.140000",
          "114040.140000",
          "114040.140000",
          "114040.140000",
          "114040.140000",
          "114040.140000",
          "114040.156000",
          "114040.156000",
          "114040.156000",
          "114040.156000",
          "114040.156000",
          "114040.156000",
          "114040.156000",
          "114040.156000",
          "114040.171000",
          "114040.171000",
          "114120.125000",
          "114120.125000",
          "114120.125000",
          "114120.140000",
          "114120.140000",
          "114120.140000",
          "114120.140000",
          "114120.140000",
          "114120.140000",
          "114120.140000",
          "114120.156000",
          "114120.156000",
          "114120.156000",
          "114120.156000",
          "114120.156000",
          "114120.156000",
          "114120.156000",
          "114120.171000",
          "114120.171000",
          "114120.171000",
          "114200.125000",
          "114200.125000",
          "114200.125000",
          "114200.140000",
          "114200.140000",
          "114200.140000",
          "114200.140000",
          "114200.140000",
          "114200.140000",
          "114200.140000",
          "114200.156000",
          "114200.156000",
          "114200.156000",
          "114200.156000",
          "114200.156000",
          "114200.156000",
          "114200.156000",
          "114200.171000",
          "114200.171000",
          "114200.171000",
          "114240.125000",
          "114240.125000",
          "114240.125000",
          "114240.140000",
          "114240.140000",
          "114240.140000",
          "114240.140000",
          "114240.140000",
          "114240.140000",
          "114240.140000",
          "114240.156000",
          "114240.156000",
          "114240.156000",
          "114240.156000",
          "114240.156000",
          "114240.156000",
          "114240.156000",
          "114240.171000",
          "114240.171000",
          "114240.171000",
          "114320.125000",
          "114320.125000",
          "114320.140000",
          "114320.140000",
          "114320.140000",
          "114320.140000",
          "114320.140000",
          "114320.140000",
          "114320.140000",
          "114320.140000",
          "114320.156000",
          "114320.156000",
          "114320.156000",
          "114320.156000",
          "114320.156000",
          "114320.156000",
          "114320.156000",
          "114320.171000",
          "114320.171000",
          "114320.171000",
          "114400.125000",
          "114400.125000",
          "114400.140000",
          "114400.140000",
          "114400.140000",
          "114400.140000",
          "114400.140000",
          "114400.140000",
          "114400.140000",
          "114400.140000",
          "114400.156000",
          "114400.156000",
          "114400.156000",
          "114400.156000",
          "114400.156000",
          "114400.156000",
          "114400.156000",
          "114400.171000",
          "114400.171000",
          "114400.171000",
          "114440.125000",
          "114440.125000",
          "114440.140000",
          "114440.140000",
          "114440.140000",
          "114440.140000",
          "114440.140000",
          "114440.140000",
          "114440.140000",
          "114440.140000",
          "114440.156000",
          "114440.156000",
          "114440.156000",
          "114440.156000",
          "114440.156000",
          "114440.156000",
          "114440.156000",
          "114440.171000",
          "114440.171000",
          "114440.171000",
          "114520.125000",
          "114520.125000",
          "114520.125000",
          "114520.140000",
          "114520.140000",
          "114520.140000",
          "114520.140000",
          "114520.140000",
          "114520.140000",
          "114520.140000",
          "114520.156000",
          "114520.156000",
          "114520.156000",
          "114520.156000",
          "114520.156000",
          "114520.156000",
          "114520.156000",
          "114520.156000",
          "114520.171000",
          "114520.171000",
          "114600.125000",
          "114600.125000",
          "114600.125000",
          "114600.140000",
          "114600.140000",
          "114600.140000",
          "114600.140000",
          "114600.140000",
          "114600.140000",
          "114600.140000",
          "114600.156000",
          "114600.156000",
          "114600.156000",
          "114600.156000",
          "114600.156000",
          "114600.156000",
          "114600.156000",
          "114600.156000",
          "114600.171000",
          "114600.171000",
          "114640.125000",
          "114640.125000",
          "114640.125000",
          "114640.140000",
          "114640.140000",
          "114640.140000",
          "114640.140000",
          "114640.140000",
          "114640.140000",
          "114640.140000",
          "114640.156000",
          "114640.156000",
          "114640.156000",
          "114640.156000",
          "114640.156000",
          "114640.156000",
          "114640.156000",
          "114640.171000",
          "114640.171000",
          "114640.171000",
          "114720.140000",
          "114720.140000",
          "114720.140000",
          "114720.140000",
          "114720.140000",
          "114720.156000",
          "114720.156000",
          "114720.156000",
          "114720.156000",
          "114720.156000",
          "114720.156000",
          "114720.156000",
          "114720.171000",
          "114720.171000",
          "114720.171000",
          "114720.171000",
          "114720.171000",
          "114720.171000",
          "114720.171000",
          "114720.187000",
          "114740.453000",
          "114740.468000",
          "114740.468000",
          "114740.468000",
          "114740.468000",
          "114740.468000",
          "114740.468000",
          "114740.468000",
          "114740.484000",
          "114740.484000",
          "114740.484000"
        ],
        "InstanceCreationTime": [
          "114000.125000",
          "114000.140000",
          "114000.140000",
          "114000.140000",
          "114000.140000",
          "114000.140000",
          "114000.140000",
          "114000.140000",
          "114000.156000",
          "114000.156000",
          "114000.156000",
          "114000.156000",
          "114000.156000",
          "114000.156000",
          "114000.156000",
          "114000.171000",
          "114000.171000",
          "114000.171000",
          "114000.171000",
          "114000.171000",
          "114000.171000",
          "114000.171000",
          "114000.187000",
          "114000.187000",
          "114000.187000",
          "114000.187000",
          "114000.187000",
          "114040.125000",
          "114040.125000",
          "114040.125000",
          "114040.140000",
          "114040.140000",
          "114040.140000",
          "114040.140000",
          "114040.140000",
          "114040.140000",
          "114040.140000",
          "114040.156000",
          "114040.156000",
          "114040.156000",
          "114040.156000",
          "114040.156000",
          "114040.156000",
          "114040.156000",
          "114040.156000",
          "114040.171000",
          "114040.171000",
          "114120.125000",
          "114120.125000",
          "114120.125000",
          "114120.140000",
          "114120.140000",
          "114120.140000",
          "114120.140000",
          "114120.140000",
          "114120.140000",
          "114120.140000",
          "114120.156000",
          "114120.156000",
          "114120.156000",
          "114120.156000",
          "114120.156000",
          "114120.156000",
          "114120.156000",
          "114120.171000",
          "114120.171000",
          "114120.171000",
          "114200.125000",
          "114200.125000",
          "114200.125000",
          "114200.140000",
          "114200.140000",
          "114200.140000",
          "114200.140000",
          "114200.140000",
          "114200.140000",
          "114200.140000",
          "114200.156000",
          "114200.156000",
          "114200.156000",
          "114200.156000",
          "114200.156000",
          "114200.156000",
          "114200.156000",
          "114200.171000",
          "114200.171000",
          "114200.171000",
          "114240.125000",
          "114240.125000",
          "114240.125000",
          "114240.140000",
          "114240.140000",
          "114240.140000",
          "114240.140000",
          "114240.140000",
          "114240.140000",
          "114240.140000",
          "114240.156000",
          "114240.156000",
          "114240.156000",
          "114240.156000",
          "114240.156000",
          "114240.156000",
          "114240.156000",
          "114240.171000",
          "114240.171000",
          "114240.171000",
          "114320.125000",
          "114320.125000",
          "114320.140000",
          "114320.140000",
          "114320.140000",
          "114320.140000",
          "114320.140000",
          "114320.140000",
          "114320.140000",
          "114320.140000",
          "114320.156000",
          "114320.156000",
          "114320.156000",
          "114320.156000",
          "114320.156000",
          "114320.156000",
          "114320.156000",
          "114320.171000",
          "114320.171000",
          "114320.171000",
          "114400.125000",
          "114400.125000",
          "114400.140000",
          "114400.140000",
          "114400.140000",
          "114400.140000",
          "114400.140000",
          "114400.140000",
          "114400.140000",
          "114400.140000",
          "114400.156000",
          "114400.156000",
          "114400.156000",
          "114400.156000",
          "114400.156000",
          "114400.156000",
          "114400.156000",
          "114400.171000",
          "114400.171000",
          "114400.171000",
          "114440.125000",
          "114440.125000",
          "114440.140000",
          "114440.140000",
          "114440.140000",
          "114440.140000",
          "114440.140000",
          "114440.140000",
          "114440.140000",
          "114440.140000",
          "114440.156000",
          "114440.156000",
          "114440.156000",
          "114440.156000",
          "114440.156000",
          "114440.156000",
          "114440.156000",
          "114440.171000",
          "114440.171000",
          "114440.171000",
          "114520.125000",
          "114520.125000",
          "114520.125000",
          "114520.140000",
          "114520.140000",
          "114520.140000",
          "114520.140000",
          "114520.140000",
          "114520.140000",
          "114520.140000",
          "114520.156000",
          "114520.156000",
          "114520.156000",
          "114520.156000",
          "114520.156000",
          "114520.156000",
          "114520.156000",
          "114520.156000",
          "114520.171000",
          "114520.171000",
          "114600.125000",
          "114600.125000",
          "114600.125000",
          "114600.140000",
          "114600.140000",
          "114600.140000",
          "114600.140000",
          "114600.140000",
          "114600.140000",
          "114600.140000",
          "114600.156000",
          "114600.156000",
          "114600.156000",
          "114600.156000",
          "114600.156000",
          "114600.156000",
          "114600.156000",
          "114600.156000",
          "114600.171000",
          "114600.171000",
          "114640.125000",
          "114640.125000",
          "114640.125000",
          "114640.140000",
          "114640.140000",
          "114640.140000",
          "114640.140000",
          "114640.140000",
          "114640.140000",
          "114640.140000",
          "114640.156000",
          "114640.156000",
          "114640.156000",
          "114640.156000",
          "114640.156000",
          "114640.156000",
          "114640.156000",
