{
  "aor": 0.0026265833333333328,
  "aqi": 0.016956199875,
  "bids_meta": {
    "AcquisitionMatrixPE": 68,
    "AcquisitionNumber": 1,
    "AcquisitionTime": "11:21:2.405000",
    "BandwidthPerPixelPhaseEncode": 31.289,
    "BaseResolution": 68,
    "CogAtlasID": "TODO",
    "CoilString": "C:HEA;HEP",
    "ConversionSoftware": "dcm2niix",
    "ConversionSoftwareVersion": "v1.0.20190902",
    "DerivedVendorReportedEchoSpacing": 0.000470002,
    "DeviceSerialNumber": "35450",
    "DwellTime": 3e-06,
    "EchoTime": 0.023,
    "EffectiveEchoSpacing": 0.000470002,
    "FlipAngle": 76,
    "ImageOrientationPatientDICOM": [
      1,
      0,
      0,
      0,
      0.996917,
      -0.0784591
    ],
    "ImageType": [
      "ORIGINAL",
      "PRIMARY",
      "M",
      "ND",
      "MOSAIC"
    ],
    "ImagingFrequency": 123.218,
    "InPlanePhaseEncodingDirectionDICOM": "COL",
    "InstitutionAddress": "Univeristy_Ave._197_Newark_North_East_US_07102-1814",
    "InstitutionName": "RUBIC",
    "InstitutionalDepartmentName": "Department",
    "MRAcquisitionType": "2D",
    "MagneticFieldStrength": 3,
    "Manufacturer": "Siemens",
    "ManufacturersModelName": "TrioTim",
    "Modality": "MR",
    "PartialFourier": 1,
    "PatientPosition": "HFS",
    "PercentPhaseFOV": 100,
    "PhaseEncodingDirection": "j-",
    "PhaseEncodingSteps": 68,
    "PhaseResolution": 1,
    "PixelBandwidth": 2451,
    "ProcedureStepDescription": "Krekelberg_David",
    "ProtocolName": "ep2d_bold_RestEPI_3",
    "PulseSequenceDetails": "%SiemensSeq%_ep2d_bold",
    "ReceiveCoilName": "HeadMatrix",
    "ReconMatrixPE": 68,
    "RepetitionTime": 2,
    "SAR": 0.176971,
    "ScanOptions": "FS",
    "ScanningSequence": "EP",
    "SequenceName": "_epfid2d1_68",
    "SequenceVariant": "SK",
    "SeriesDescription": "ep2d_bold_RestEPI_3",
    "SeriesNumber": 10,
    "ShimSetting": [
      1971,
      -712,
      -7580,
      812,
      125,
      -193,
      -16,
      -175
    ],
    "SliceThickness": 2.5,
    "SliceTiming": [
      1.95,
      1.895,
      1.84,
      1.7825,
      1.7275,
      1.6725,
      1.615,
      1.56,
      1.505,
      1.45,
      1.3925,
      1.3375,
      1.2825,
      1.225,
      1.17,
      1.115,
      1.0575,
      1.0025,
      0.9475,
      0.89,
      0.835,
      0.78,
      0.725,
      0.6675,
      0.6125,
      0.5575,
      0.5,
      0.445,
      0.39,
      0.3325,
      0.2775,
      0.2225,
      0.165,
      0.11,
      0.055,
      0
    ],
    "SoftwareVersions": "syngo_MR_B19",
    "SpacingBetweenSlices": 3,
    "StationName": "MRC35450",
    "TaskName": "rest",
    "TotalReadoutTime": 0.0314901,
    "TxRefAmp": 334.927,
    "dataset": "<unset>",
    "dcmmeta_affine": [
      [
        -3.0,
        0.0,
        0.0,
        107.4237289428711
      ],
      [
        0.0,
        2.9907519817352295,
        -0.23537729680538177,
        -72.20282745361328
      ],
      [
        0.0,
        0.23537728190422058,
        2.9907519817352295,
        -49.258155822753906
      ],
      [
        0.0,
        0.0,
        0.0,
        1.0
      ]
    ],
    "dcmmeta_reorient_transform": [
      [
        0.0,
        -1.0,
        0.0,
        67.0
      ],
      [
        1.0,
        0.0,
        0.0,
        0.0
      ],
      [
        0.0,
        0.0,
        1.0,
        0.0
      ],
      [
        0.0,
        0.0,
        0.0,
        1.0
      ]
    ],
    "dcmmeta_shape": [
      68,
      68,
      36,
      240
    ],
    "dcmmeta_slice_dim": 2,
    "dcmmeta_version": 0.6,
    "global": {
      "const": {
        "AcquisitionMatrix": [
          68,
          0,
          0,
          68
        ],
        "AngioFlag": "N",
        "BitsAllocated": 16,
        "BitsStored": 12,
        "Columns": 408,
        "EchoNumbers": 1,
        "EchoTime": 23.0,
        "EchoTrainLength": 1,
        "FlipAngle": 76.0,
        "HighBit": 11,
        "ImageOrientationPatient": [
          1.0,
          0.0,
          0.0,
          0.0,
          0.99691733371613,
          -0.0784590959439
        ],
        "ImagePositionPatient": [
          -617.42372894287,
          -636.60539355532,
          6.526263134894
        ],
        "ImageType": [
          "ORIGINAL",
          "PRIMARY",
          "M",
          "ND",
          "MOSAIC"
        ],
        "ImagedNucleus": "1H",
        "ImagingFrequency": 123.218496,
        "InPlanePhaseEncodingDirection": "COL",
        "MRAcquisitionType": "2D",
        "MagneticFieldStrength": 3.0,
        "Manufacturer": "SIEMENS",
        "ManufacturerModelName": "TrioTim",
        "Modality": "MR",
        "NumberOfAverages": 1.0,
        "NumberOfPhaseEncodingSteps": 68,
        "PercentPhaseFieldOfView": 100.0,
        "PercentSampling": 100.0,
        "PerformedProcedureStepStartTime": "101757.796000",
        "PhotometricInterpretation": "MONOCHROME2",
        "PixelBandwidth": 2451.0,
        "PixelRepresentation": 0,
        "PixelSpacing": [
          3.0,
          3.0
        ],
        "ProtocolName": "ep2d_bold_RestEPI_3",
        "RepetitionTime": 2000.0,
        "Rows": 408,
        "SAR": 0.17697147421409,
        "SamplesPerPixel": 1,
        "ScanOptions": "FS",
        "ScanningSequence": "EP",
        "SequenceName": "*epfid2d1_68",
        "SequenceVariant": "SK",
        "SeriesDescription": "ep2d_bold_RestEPI_3",
        "SeriesNumber": 10,
        "SeriesTime": "112144.000000",
        "SliceLocation": -43.441338807783,
        "SliceThickness": 2.5,
        "SmallestImagePixelValue": 0,
        "SoftwareVersions": "syngo MR B19",
        "SpacingBetweenSlices": 3.0000000822465,
        "SpecificCharacterSet": "ISO_IR 100",
        "StudyID": "1",
        "StudyTime": "101757.687000",
        "TransmitCoilName": "Body",
        "VariableFlipAngleFlag": "N",
        "WindowCenterWidthExplanation": "Algo1",
        "dBdt": 0.0
      },
      "slices": {}
    },
    "modality": "bold",
    "run_id": 3,
    "subject_id": "225",
    "task_id": "rest",
    "time": {
      "samples": {
        "AcquisitionNumber": [
          1,
          2,
          3,
          4,
          5,
          6,
          7,
          8,
          9,
          10,
          11,
          12,
          13,
          14,
          15,
          16,
          17,
          18,
          19,
          20,
          21,
          22,
          23,
          24,
          25,
          26,
          27,
          28,
          29,
          30,
          31,
          32,
          33,
          34,
          35,
          36,
          37,
          38,
          39,
          40,
          41,
          42,
          43,
          44,
          45,
          46,
          47,
          48,
          49,
          50,
          51,
          52,
          53,
          54,
          55,
          56,
          57,
          58,
          59,
          60,
          61,
          62,
          63,
          64,
          65,
          66,
          67,
          68,
          69,
          70,
          71,
          72,
          73,
          74,
          75,
          76,
          77,
          78,
          79,
          80,
          81,
          82,
          83,
          84,
          85,
          86,
          87,
          88,
          89,
          90,
          91,
          92,
          93,
          94,
          95,
          96,
          97,
          98,
          99,
          100,
          101,
          102,
          103,
          104,
          105,
          106,
          107,
          108,
          109,
          110,
          111,
          112,
          113,
          114,
          115,
          116,
          117,
          118,
          119,
          120,
          121,
          122,
          123,
          124,
          125,
          126,
          127,
          128,
          129,
          130,
          131,
          132,
          133,
          134,
          135,
          136,
          137,
          138,
          139,
          140,
          141,
          142,
          143,
          144,
          145,
          146,
          147,
          148,
          149,
          150,
          151,
          152,
          153,
          154,
          155,
          156,
          157,
          158,
          159,
          160,
          161,
          162,
          163,
          164,
          165,
          166,
          167,
          168,
          169,
          170,
          171,
          172,
          173,
          174,
          175,
          176,
          177,
          178,
          179,
          180,
          181,
          182,
          183,
          184,
          185,
          186,
          187,
          188,
          189,
          190,
          191,
          192,
          193,
          194,
          195,
          196,
          197,
          198,
          199,
          200,
          201,
          202,
          203,
          204,
          205,
          206,
          207,
          208,
          209,
          210,
          211,
          212,
          213,
          214,
          215,
          216,
          217,
          218,
          219,
          220,
          221,
          222,
          223,
          224,
          225,
          226,
          227,
          228,
          229,
          230,
          231,
          232,
          233,
          234,
          235,
          236,
          237,
          238,
          239,
          240
        ],
        "AcquisitionTime": [
          "112102.405000",
          "112104.412500",
          "112106.422500",
          "112108.430000",
          "112110.437500",
          "112112.445000",
          "112114.455000",
          "112116.462500",
          "112118.470000",
          "112120.477500",
          "112122.485000",
          "112124.495000",
          "112126.502500",
          "112128.510000",
          "112130.517500",
          "112132.525000",
          "112134.535000",
          "112136.542500",
          "112138.550000",
          "112140.557500",
          "112142.567500",
          "112144.575000",
          "112146.582500",
          "112148.590000",
          "112150.597500",
          "112152.607500",
          "112154.615000",
          "112156.622500",
          "112158.630000",
          "112200.637500",
          "112202.647500",
          "112204.655000",
          "112206.662500",
          "112208.670000",
          "112210.677500",
          "112212.687500",
          "112214.695000",
          "112216.702500",
          "112218.710000",
          "112220.720000",
          "112222.727500",
          "112224.735000",
          "112226.742500",
          "112228.750000",
          "112230.760000",
          "112232.767500",
          "112234.775000",
          "112236.782500",
          "112238.790000",
          "112240.800000",
          "112242.807500",
          "112244.815000",
          "112246.822500",
          "112248.832500",
          "112250.840000",
          "112252.847500",
          "112254.855000",
          "112256.862500",
          "112258.872500",
          "112300.880000",
          "112302.887500",
          "112304.895000",
          "112306.902500",
          "112308.912500",
          "112310.920000",
          "112312.927500",
          "112314.935000",
          "112316.945000",
          "112318.952500",
          "112320.960000",
          "112322.967500",
          "112324.975000",
          "112326.985000",
          "112328.992500",
          "112331.000000",
          "112333.007500",
          "112335.015000",
          "112337.025000",
          "112339.032500",
          "112341.040000",
          "112343.047500",
          "112345.055000",
          "112347.065000",
          "112349.072500",
          "112351.080000",
          "112353.087500",
          "112355.097500",
          "112357.105000",
          "112359.112500",
          "112401.120000",
          "112403.127500",
          "112405.137500",
          "112407.145000",
          "112409.152500",
          "112411.160000",
          "112413.167500",
          "112415.177500",
          "112417.185000",
          "112419.192500",
          "112421.200000",
          "112423.210000",
          "112425.217500",
          "112427.225000",
          "112429.232500",
          "112431.240000",
          "112433.250000",
          "112435.257500",
          "112437.265000",
          "112439.272500",
          "112441.280000",
          "112443.290000",
          "112445.297500",
          "112447.305000",
          "112449.312500",
          "112451.322500",
          "112453.330000",
          "112455.337500",
          "112457.345000",
          "112459.352500",
          "112501.362500",
          "112503.370000",
          "112505.377500",
          "112507.385000",
          "112509.392500",
          "112511.402500",
          "112513.410000",
          "112515.417500",
          "112517.425000",
          "112519.435000",
          "112521.442500",
          "112523.450000",
          "112525.457500",
          "112527.465000",
          "112529.475000",
          "112531.482500",
          "112533.490000",
          "112535.497500",
          "112537.505000",
          "112539.515000",
          "112541.522500",
          "112543.530000",
          "112545.537500",
          "112547.545000",
          "112549.555000",
          "112551.562500",
          "112553.570000",
          "112555.577500",
          "112557.587500",
          "112559.595000",
          "112601.602500",
          "112603.610000",
          "112605.617500",
          "112607.627500",
          "112609.635000",
          "112611.642500",
          "112613.650000",
          "112615.657500",
          "112617.667500",
          "112619.675000",
          "112621.682500",
          "112623.690000",
          "112625.700000",
          "112627.707500",
          "112629.715000",
          "112631.722500",
          "112633.730000",
          "112635.740000",
          "112637.747500",
          "112639.755000",
          "112641.762500",
          "112643.770000",
          "112645.780000",
          "112647.787500",
          "112649.795000",
          "112651.802500",
          "112653.812500",
          "112655.820000",
          "112657.827500",
          "112659.835000",
          "112701.842500",
          "112703.852500",
          "112705.860000",
          "112707.867500",
          "112709.875000",
          "112711.882500",
          "112713.892500",
          "112715.900000",
          "112717.907500",
          "112719.915000",
          "112721.922500",
          "112723.932500",
          "112725.940000",
          "112727.947500",
          "112729.955000",
          "112731.965000",
          "112733.972500",
          "112735.980000",
          "112737.987500",
          "112739.995000",
          "112742.005000",
          "112744.012500",
          "112746.020000",
          "112748.027500",
          "112750.035000",
          "112752.045000",
          "112754.052500",
          "112756.060000",
          "112758.067500",
          "112800.077500",
          "112802.085000",
          "112804.092500",
          "112806.100000",
          "112808.107500",
          "112810.117500",
          "112812.125000",
          "112814.132500",
          "112816.140000",
          "112818.147500",
          "112820.157500",
          "112822.165000",
          "112824.172500",
          "112826.180000",
          "112828.190000",
          "112830.197500",
          "112832.205000",
          "112834.212500",
          "112836.220000",
          "112838.230000",
          "112840.237500",
          "112842.245000",
          "112844.252500",
          "112846.260000",
          "112848.270000",
          "112850.277500",
          "112852.285000",
          "112854.292500",
          "112856.300000",
          "112858.310000",
          "112900.317500",
          "112902.325000"
        ],
        "ContentTime": [
          "112144.000000",
          "112144.015000",
          "112144.015000",
          "112144.015000",
          "112144.015000",
          "112144.015000",
          "112144.015000",
          "112144.031000",
          "112144.031000",
          "112144.031000",
          "112144.031000",
          "112144.031000",
          "112144.031000",
          "112144.031000",
          "112144.046000",
          "112144.046000",
          "112144.046000",
          "112144.046000",
          "112144.046000",
          "112144.046000",
          "112224.000000",
          "112224.000000",
          "112224.000000",
          "112224.015000",
          "112224.015000",
          "112224.015000",
          "112224.015000",
          "112224.015000",
          "112224.015000",
          "112224.015000",
          "112224.031000",
          "112224.031000",
          "112224.031000",
          "112224.031000",
          "112224.031000",
          "112224.031000",
          "112224.031000",
          "112224.046000",
          "112224.046000",
          "112224.046000",
          "112304.000000",
          "112304.000000",
          "112304.000000",
          "112304.015000",
          "112304.015000",
          "112304.015000",
          "112304.015000",
          "112304.015000",
          "112304.015000",
          "112304.015000",
          "112304.031000",
          "112304.031000",
          "112304.031000",
          "112304.031000",
          "112304.031000",
          "112304.031000",
          "112304.031000",
          "112304.046000",
          "112304.046000",
          "112304.046000",
          "112344.000000",
          "112344.000000",
          "112344.000000",
          "112344.015000",
          "112344.015000",
          "112344.015000",
          "112344.015000",
          "112344.015000",
          "112344.015000",
          "112344.015000",
          "112344.031000",
          "112344.031000",
          "112344.031000",
          "112344.031000",
          "112344.031000",
          "112344.031000",
          "112344.031000",
          "112344.046000",
          "112344.046000",
          "112344.046000",
          "112424.000000",
          "112424.000000",
          "112424.000000",
          "112424.015000",
          "112424.015000",
          "112424.015000",
          "112424.015000",
          "112424.015000",
          "112424.015000",
          "112424.015000",
          "112424.031000",
          "112424.031000",
          "112424.031000",
          "112424.031000",
          "112424.031000",
          "112424.031000",
          "112424.031000",
          "112424.046000",
          "112424.046000",
          "112424.046000",
          "112504.000000",
          "112504.000000",
          "112504.015000",
          "112504.015000",
          "112504.015000",
          "112504.015000",
          "112504.015000",
          "112504.015000",
          "112504.015000",
          "112504.015000",
          "112504.031000",
          "112504.031000",
          "112504.031000",
          "112504.031000",
          "112504.031000",
          "112504.031000",
          "112504.031000",
          "112504.046000",
          "112504.046000",
          "112504.046000",
          "112544.000000",
          "112544.000000",
          "112544.000000",
          "112544.015000",
          "112544.015000",
          "112544.015000",
          "112544.015000",
          "112544.015000",
          "112544.015000",
          "112544.015000",
          "112544.031000",
          "112544.031000",
          "112544.031000",
          "112544.031000",
          "112544.031000",
          "112544.031000",
          "112544.031000",
          "112544.046000",
          "112544.046000",
          "112544.046000",
          "112624.000000",
          "112624.000000",
          "112624.015000",
          "112624.015000",
          "112624.015000",
          "112624.015000",
          "112624.015000",
          "112624.015000",
          "112624.031000",
          "112624.031000",
          "112624.031000",
          "112624.031000",
          "112624.031000",
          "112624.031000",
          "112624.031000",
          "112624.031000",
          "112624.046000",
          "112624.046000",
          "112624.046000",
          "112624.046000",
          "112704.000000",
          "112704.000000",
          "112704.015000",
          "112704.015000",
          "112704.015000",
          "112704.015000",
          "112704.015000",
          "112704.015000",
          "112704.015000",
          "112704.015000",
          "112704.031000",
          "112704.031000",
          "112704.031000",
          "112704.031000",
          "112704.031000",
          "112704.031000",
          "112704.046000",
          "112704.046000",
          "112704.046000",
          "112704.046000",
          "112744.000000",
          "112744.000000",
          "112744.000000",
          "112744.015000",
          "112744.015000",
          "112744.015000",
          "112744.015000",
          "112744.015000",
          "112744.015000",
          "112744.015000",
          "112744.031000",
          "112744.031000",
          "112744.031000",
          "112744.031000",
          "112744.031000",
          "112744.031000",
          "112744.031000",
          "112744.046000",
          "112744.046000",
          "112744.046000",
          "112824.000000",
          "112824.000000",
          "112824.000000",
          "112824.015000",
          "112824.015000",
          "112824.015000",
          "112824.015000",
          "112824.015000",
          "112824.015000",
          "112824.015000",
          "112824.031000",
          "112824.031000",
          "112824.031000",
          "112824.031000",
          "112824.031000",
          "112824.031000",
          "112824.046000",
          "112824.046000",
          "112824.046000",
          "112824.046000",
          "112902.500000",
          "112902.500000",
          "112902.500000",
          "112902.500000",
          "112902.500000",
          "112902.515000",
          "112902.515000",
          "112902.515000",
          "112902.515000",
          "112902.515000",
          "112902.515000",
          "112902.515000",
          "112902.515000",
          "112902.531000",
          "112902.531000",
          "112902.531000",
          "112902.531000",
          "112902.531000",
          "112902.531000",
          "112902.531000"
        ],
        "InstanceCreationTime": [
          "112144.000000",
          "112144.015000",
          "112144.015000",
          "112144.015000",
          "112144.015000",
          "112144.015000",
          "112144.015000",
          "112144.031000",
          "112144.031000",
          "112144.031000",
          "112144.031000",
          "112144.031000",
          "112144.031000",
          "112144.031000",
          "112144.046000",
          "112144.046000",
          "112144.046000",
          "112144.046000",
          "112144.046000",
          "112144.046000",
          "112224.000000",
          "112224.000000",
          "112224.000000",
          "112224.015000",
          "112224.015000",
          "112224.015000",
          "112224.015000",
          "112224.015000",
          "112224.015000",
          "112224.015000",
          "112224.031000",
          "112224.031000",
          "112224.031000",
          "112224.031000",
          "112224.031000",
          "112224.031000",
          "112224.031000",
          "112224.046000",
          "112224.046000",
          "112224.046000",
          "112304.000000",
          "112304.000000",
          "112304.000000",
          "112304.015000",
          "112304.015000",
          "112304.015000",
          "112304.015000",
          "112304.015000",
          "112304.015000",
          "112304.015000",
          "112304.031000",
          "112304.031000",
          "112304.031000",
          "112304.031000",
          "112304.031000",
          "112304.031000",
          "112304.031000",
          "112304.046000",
          "112304.046000",
          "112304.046000",
          "112344.000000",
          "112344.000000",
          "112344.000000",
          "112344.015000",
          "112344.015000",
          "112344.015000",
          "112344.015000",
          "112344.015000",
          "112344.015000",
          "112344.015000",
          "112344.031000",
          "112344.031000",
          "112344.031000",
          "112344.031000",
          "112344.031000",
          "112344.031000",
          "112344.031000",
          "112344.046000",
          "112344.046000",
          "112344.046000",
          "112424.000000",
          "112424.000000",
          "112424.000000",
          "112424.015000",
          "112424.015000",
          "112424.015000",
          "112424.015000",
          "112424.015000",
          "112424.015000",
          "112424.015000",
          "112424.031000",
          "112424.031000",
          "112424.031000",
          "112424.031000",
          "112424.031000",
          "112424.031000",
          "112424.031000",
          "112424.046000",
          "112424.046000",
          "112424.046000",
          "112504.000000",
          "112504.000000",
          "112504.015000",
          "112504.015000",
          "112504.015000",
          "112504.015000",
          "112504.015000",
          "112504.015000",
          "112504.015000",
          "112504.015000",
          "112504.031000",
          "112504.031000",
          "112504.031000",
          "112504.031000",
          "112504.031000",
          "112504.031000",
          "112504.031000",
          "112504.046000",
          "112504.046000",
          "112504.046000",
          "112544.000000",
          "112544.000000",
          "112544.000000",
          "112544.015000",
          "112544.015000",
          "112544.015000",
          "112544.015000",
          "112544.015000",
          "112544.015000",
          "112544.015000",
          "112544.031000",
          "112544.031000",
          "112544.031000",
          "112544.031000",
          "112544.031000",
          "112544.031000",
          "112544.031000",
          "112544.046000",
          "112544.046000",
          "112544.046000",
          "112624.000000",
          "112624.000000",
          "112624.015000",
          "112624.015000",
          "112624.015000",
          "112624.015000",
          "112624.015000",
          "112624.015000",
          "112624.031000",
          "112624.031000",
          "112624.031000",
          "112624.031000",
          "112624.031000",
          "112624.031000",
          "112624.031000",
          "112624.031000",
          "112624.046000",
          "112624.046000",
          "112624.046000",
          "112624.046000",
          "112704.000000",
          "112704.000000",
          "112704.015000",
          "112704.015000",
          "112704.015000",
          "112704.015000",
          "112704.015000",
          "112704.015000",
          "112704.015000",
          "112704.015000",
          "112704.031000",
          "112704.031000",
          "112704.031000",
          "112704.031000",
          "112704.031000",
          "112704.031000",
          "112704.046000",
          "112704.046000",
          "112704.046000",
          "112704.046000",
          "112744.000000",
          "112744.000000",
          "112744.000000",
          "112744.015000",
          "112744.015000",
          "112744.015000",
          "112744.015000",
          "112744.015000",
          "112744.015000",
          "112744.015000",
          "112744.031000",
          "112744.031000",
          "112744.031000",
          "112744.031000",
          "112744.031000",
          "112744.031000",
          "112744.031000",
          "112744.046000",
          "112744.046000",
          "112744.046000",
          "112824.000000",
          "112824.000000",
          "112824.000000",
          "112824.015000",
          "112824.015000",
          "112824.015000",
          "112824.015000",
          "112824.015000",
          "112824.015000",
          "112824.015000",
          "112824.031000",
          "112824.031000",
          "112824.031000",
          "112824.031000",
          "112824.031000",
          "112824.031000",
          "112824.046000",
          "112824.046000",
          "112824.046000",
          "112824.046000",
          "112902.500000",
          "112902.500000",
          "112902.500000",
          "112902.500000",
          "112902.500000",
          "112902.515000",
          "112902.515000",
          "112902.515000",
          "112902.515000",
          "112902.515000",
          "112902.515000",
          "112902.515000",
          "112902.515000",
          "112902.531000",
          "112902.531000",
          "112902.531000",
          "112902.531000",
          "112902.531000",
          "112902.531000",
          "112902.531000"
        ],
        "InstanceNumber": [
          1,
          2,
          3,
          4,
          5,
          6,
          7,
          8,
          9,
          10,
          11,
          12,
          13,
          14,
          15,
          16,
          17,
          18,
          19,
          20,
          21,
          22,
          23,
          24,
          25,
          26,
          27,
          28,
          29,
          30,
          31,
          32,
          33,
          34,
          35,
          36,
          37,
          38,
          39,
          40,
          41,
          42,
          43,
          44,
          45,
          46,
          47,
          48,
          49,
          50,
          51,
          52,
          53,
          54,
          55,
          56,
          57,
          58,
